# Human electrocardiogram, single lead, filtered.
# (c) Goldberger et al, openly licensed, details unclear.
# sample rate = 500 Hz
-1.15e-01
-1.15e-01
-1.20e-01
-1.20e-01
-1.20e-01
-1.20e-01
-1.20e-01
-1.15e-01
-1.15e-01
-1.15e-01
-1.10e-01
-1.10e-01
-1.10e-01
-1.10e-01
-1.05e-01
-1.05e-01
-1.05e-01
-1.05e-01
-1.00e-01
-1.00e-01
-1.00e-01
-1.00e-01
-1.00e-01
-1.00e-01
-1.00e-01
-1.00e-01
-1.00e-01
-9.50e-02
-9.50e-02
-9.50e-02
-9.50e-02
-9.00e-02
-9.00e-02
-9.00e-02
-9.00e-02
-8.50e-02
-8.50e-02
-8.50e-02
-8.50e-02
-8.50e-02
-8.00e-02
-8.00e-02
-7.50e-02
-7.00e-02
-7.00e-02
-6.50e-02
-6.50e-02
-6.00e-02
-6.00e-02
-6.00e-02
-6.00e-02
-6.50e-02
-6.50e-02
-6.00e-02
-6.00e-02
-5.50e-02
-5.00e-02
-5.00e-02
-4.50e-02
-4.00e-02
-3.50e-02
-3.00e-02
-2.50e-02
-2.00e-02
-1.00e-02
-5.00e-03
5.00e-03
1.00e-02
2.00e-02
2.50e-02
2.50e-02
3.00e-02
3.00e-02
3.00e-02
3.50e-02
3.50e-02
4.00e-02
4.50e-02
5.50e-02
6.50e-02
7.50e-02
8.50e-02
9.50e-02
1.00e-01
1.05e-01
1.10e-01
1.15e-01
1.20e-01
1.25e-01
1.25e-01
1.25e-01
1.25e-01
1.25e-01
1.20e-01
1.20e-01
1.15e-01
1.10e-01
1.05e-01
1.05e-01
1.00e-01
1.00e-01
1.00e-01
1.00e-01
9.50e-02
9.00e-02
8.50e-02
7.50e-02
6.50e-02
5.00e-02
4.00e-02
2.50e-02
1.50e-02
1.00e-02
0.00e+00
-5.00e-03
-1.00e-02
-1.50e-02
-2.00e-02
-2.50e-02
-3.50e-02
-4.50e-02
-5.50e-02
-6.00e-02
-6.50e-02
-6.50e-02
-6.00e-02
-5.00e-02
-3.50e-02
-1.50e-02
0.00e+00
1.50e-02
2.50e-02
3.00e-02
3.50e-02
3.50e-02
3.00e-02
2.50e-02
2.50e-02
2.50e-02
2.50e-02
3.00e-02
3.00e-02
3.50e-02
4.00e-02
4.50e-02
5.00e-02
5.00e-02
5.00e-02
5.00e-02
5.50e-02
5.50e-02
6.00e-02
6.00e-02
6.50e-02
6.50e-02
7.00e-02
7.00e-02
7.00e-02
7.00e-02
7.00e-02
6.50e-02
6.50e-02
6.50e-02
6.00e-02
6.00e-02
6.00e-02
6.50e-02
6.50e-02
7.00e-02
7.00e-02
7.00e-02
7.50e-02
7.50e-02
7.50e-02
7.50e-02
7.00e-02
7.00e-02
7.00e-02
7.00e-02
6.50e-02
6.50e-02
6.50e-02
6.50e-02
6.50e-02
6.50e-02
6.00e-02
6.00e-02
6.00e-02
6.50e-02
6.50e-02
6.50e-02
7.00e-02
7.00e-02
7.50e-02
7.50e-02
7.50e-02
7.50e-02
7.00e-02
7.00e-02
6.50e-02
6.50e-02
6.00e-02
5.50e-02
5.50e-02
5.50e-02
5.00e-02
5.00e-02
5.00e-02
5.00e-02
5.00e-02
4.50e-02
4.50e-02
4.50e-02
4.00e-02
3.50e-02
3.50e-02
3.00e-02
3.00e-02
2.50e-02
2.50e-02
3.00e-02
3.00e-02
3.50e-02
4.00e-02
4.50e-02
4.50e-02
4.50e-02
4.50e-02
4.50e-02
4.50e-02
4.50e-02
4.50e-02
5.00e-02
5.00e-02
5.00e-02
5.00e-02
4.50e-02
4.00e-02
3.50e-02
3.00e-02
2.00e-02
2.00e-02
2.00e-02
2.00e-02
2.50e-02
3.50e-02
4.00e-02
4.00e-02
4.50e-02
4.50e-02
4.00e-02
3.50e-02
3.00e-02
2.50e-02
2.50e-02
3.00e-02
3.00e-02
3.50e-02
4.50e-02
5.00e-02
5.50e-02
6.00e-02
6.00e-02
6.00e-02
6.50e-02
6.00e-02
6.00e-02
6.00e-02
5.50e-02
5.50e-02
5.00e-02
4.50e-02
4.50e-02
4.00e-02
4.50e-02
5.00e-02
5.50e-02
6.00e-02
7.00e-02
7.50e-02
8.00e-02
8.50e-02
8.00e-02
7.50e-02
7.00e-02
6.50e-02
5.50e-02
5.00e-02
4.50e-02
4.00e-02
4.00e-02
3.50e-02
3.00e-02
2.00e-02
1.50e-02
1.00e-02
1.00e-02
5.00e-03
5.00e-03
1.00e-02
1.50e-02
1.50e-02
2.00e-02
2.00e-02
2.00e-02
2.00e-02
2.00e-02
1.50e-02
1.50e-02
1.50e-02
1.00e-02
1.00e-02
5.00e-03
5.00e-03
0.00e+00
-5.00e-03
-1.00e-02
-1.00e-02
-1.00e-02
-1.00e-02
-1.00e-02
-1.00e-02
-1.00e-02
-1.00e-02
-1.50e-02
-1.50e-02
-2.00e-02
-2.50e-02
-3.00e-02
-3.00e-02
-3.00e-02
-3.00e-02
-3.00e-02
-2.50e-02
-2.50e-02
-3.00e-02
-3.50e-02
-4.00e-02
-4.50e-02
-4.50e-02
-3.50e-02
-1.50e-02
2.50e-02
7.50e-02
1.40e-01
2.20e-01
3.05e-01
3.90e-01
4.70e-01
5.35e-01
5.90e-01
6.20e-01
6.25e-01
6.00e-01
5.55e-01
4.85e-01
3.95e-01
2.95e-01
1.90e-01
9.00e-02
0.00e+00
-7.00e-02
-1.20e-01
-1.45e-01
-1.50e-01
-1.40e-01
-1.15e-01
-9.00e-02
-6.00e-02
-4.00e-02
-2.50e-02
-1.50e-02
-1.50e-02
-2.00e-02
-2.50e-02
-3.50e-02
-3.50e-02
-4.00e-02
-4.00e-02
-4.00e-02
-4.00e-02
-3.50e-02
-3.50e-02
-3.50e-02
-4.00e-02
-4.00e-02
-4.00e-02
-4.50e-02
-4.50e-02
-4.50e-02
-4.50e-02
-4.50e-02
-4.50e-02
-4.00e-02
-4.00e-02
-3.50e-02
-3.00e-02
-3.00e-02
-2.50e-02
-2.50e-02
-2.50e-02
-2.50e-02
-2.50e-02
-2.50e-02
-2.50e-02
-2.50e-02
-3.00e-02
-3.00e-02
-3.00e-02
-3.00e-02
-2.50e-02
-2.50e-02
-2.00e-02
-2.00e-02
-1.50e-02
-1.00e-02
-1.00e-02
-1.00e-02
-1.00e-02
-1.00e-02
-1.00e-02
-1.00e-02
-1.00e-02
-1.00e-02
-5.00e-03
0.00e+00
5.00e-03
1.00e-02
1.50e-02
2.00e-02
2.50e-02
2.50e-02
3.00e-02
3.00e-02
3.50e-02
4.00e-02
4.50e-02
5.00e-02
5.50e-02
6.50e-02
7.00e-02
7.00e-02
7.50e-02
7.50e-02
7.50e-02
7.50e-02
7.50e-02
8.00e-02
8.50e-02
9.00e-02
9.50e-02
1.05e-01
1.15e-01
1.20e-01
1.30e-01
1.35e-01
1.40e-01
1.40e-01
1.45e-01
1.45e-01
1.45e-01
1.45e-01
1.45e-01
1.50e-01
1.50e-01
1.55e-01
1.60e-01
1.65e-01
1.70e-01
1.75e-01
1.75e-01
1.70e-01
1.65e-01
1.55e-01
1.40e-01
1.30e-01
1.20e-01
1.15e-01
1.10e-01
1.05e-01
1.00e-01
9.50e-02
8.50e-02
7.50e-02
6.00e-02
4.50e-02
3.00e-02
1.50e-02
5.00e-03
-5.00e-03
-5.00e-03
-5.00e-03
-5.00e-03
-5.00e-03
-5.00e-03
-1.00e-02
-1.50e-02
-2.50e-02
-3.50e-02
-4.00e-02
-4.50e-02
-5.00e-02
-5.00e-02
-5.00e-02
-4.50e-02
-5.00e-02
-5.00e-02
-5.50e-02
-6.00e-02
-7.00e-02
-7.50e-02
-7.50e-02
-8.00e-02
-8.00e-02
-7.50e-02
-7.00e-02
-6.50e-02
-6.00e-02
-6.00e-02
-5.50e-02
-5.50e-02
-5.50e-02
-5.50e-02
-5.50e-02
-5.50e-02
-5.50e-02
-5.50e-02
-5.50e-02
-6.00e-02
-6.00e-02
-6.50e-02
-6.50e-02
-6.50e-02
-6.50e-02
-6.00e-02
-6.00e-02
-5.50e-02
-5.50e-02
-5.50e-02
-5.00e-02
-5.50e-02
-5.50e-02
-5.50e-02
-6.00e-02
-6.00e-02
-6.00e-02
-6.00e-02
-6.00e-02
-6.00e-02
-6.50e-02
-6.50e-02
-6.50e-02
-7.00e-02
-7.00e-02
-7.00e-02
-7.00e-02
-6.50e-02
-6.50e-02
-6.00e-02
-5.50e-02
-5.50e-02
-5.00e-02
-5.50e-02
-5.50e-02
-5.50e-02
-6.00e-02
-6.00e-02
-6.00e-02
-6.00e-02
-5.50e-02
-5.50e-02
-5.00e-02
-4.50e-02
-4.00e-02
-4.00e-02
-3.50e-02
-3.50e-02
-3.50e-02
-3.50e-02
-3.50e-02
-3.50e-02
-3.50e-02
-3.50e-02
-3.50e-02
-3.00e-02
-3.00e-02
-3.00e-02
-3.50e-02
-3.50e-02
-3.50e-02
-4.00e-02
-4.50e-02
-4.50e-02
-5.00e-02
-5.00e-02
-5.00e-02
-5.00e-02
-5.00e-02
-5.00e-02
-5.00e-02
-5.00e-02
-5.00e-02
-5.50e-02
-5.50e-02
-6.00e-02
-6.00e-02
-6.50e-02
-6.50e-02
-6.50e-02
-6.00e-02
-6.00e-02
-6.00e-02
-6.00e-02
-6.00e-02
-6.00e-02
-6.00e-02
-6.00e-02
-6.00e-02
-6.00e-02
-6.00e-02
-6.00e-02
-5.50e-02
-5.00e-02
-5.00e-02
-4.50e-02
-4.50e-02
-4.00e-02
-4.00e-02
-4.00e-02
-3.50e-02
-3.50e-02
-3.00e-02
-3.00e-02
-2.50e-02
-2.50e-02
-2.00e-02
-2.00e-02
-2.00e-02
-2.00e-02
-2.00e-02
-2.00e-02
-2.00e-02
-2.50e-02
-2.50e-02
-3.00e-02
-3.00e-02
-3.50e-02
-3.50e-02
-3.50e-02
-3.00e-02
-3.00e-02
-2.50e-02
-1.50e-02
-1.00e-02
-5.00e-03
0.00e+00
0.00e+00
0.00e+00
0.00e+00
-5.00e-03
-1.00e-02
-1.50e-02
-2.00e-02
-2.50e-02
-3.00e-02
-3.50e-02
-4.00e-02
-4.50e-02
-5.50e-02
-6.00e-02
-7.00e-02
-7.50e-02
-8.00e-02
-8.00e-02
-8.00e-02
-8.00e-02
-7.50e-02
-7.50e-02
-7.50e-02
-7.50e-02
-7.50e-02
-7.50e-02
-7.50e-02
-7.50e-02
-7.50e-02
-7.50e-02
-7.50e-02
-7.50e-02
-8.00e-02
-8.00e-02
-8.50e-02
-9.00e-02
-9.50e-02
-9.50e-02
-9.50e-02
-9.50e-02
-9.00e-02
-8.50e-02
-8.50e-02
-8.50e-02
-8.50e-02
-9.00e-02
-9.50e-02
-1.00e-01
-1.05e-01
-1.05e-01
-1.05e-01
-1.05e-01
-1.05e-01
-1.05e-01
-1.10e-01
-1.15e-01
-1.25e-01
-1.30e-01
-1.30e-01
-1.20e-01
-9.50e-02
-5.50e-02
-5.00e-03
6.00e-02
1.40e-01
2.25e-01
3.10e-01
3.95e-01
4.70e-01
5.30e-01
5.75e-01
5.95e-01
5.90e-01
5.55e-01
4.95e-01
4.10e-01
3.10e-01
2.00e-01
8.50e-02
-1.50e-02
-9.50e-02
-1.50e-01
-1.80e-01
-1.85e-01
-1.70e-01
-1.40e-01
-1.10e-01
-8.00e-02
-6.00e-02
-5.50e-02
-5.50e-02
-6.50e-02
-7.50e-02
-8.50e-02
-9.50e-02
-1.00e-01
-1.00e-01
-9.50e-02
-9.00e-02
-8.50e-02
-8.50e-02
-8.00e-02
-8.00e-02
-8.00e-02
-8.00e-02
-8.00e-02
-8.00e-02
-7.50e-02
-7.00e-02
-7.00e-02
-6.50e-02
-6.50e-02
-6.50e-02
-7.00e-02
-7.00e-02
-7.00e-02
-6.50e-02
-6.50e-02
-6.00e-02
-5.50e-02
-5.00e-02
-4.50e-02
-4.50e-02
-4.00e-02
-4.00e-02
-3.50e-02
-3.50e-02
-3.00e-02
-2.50e-02
-2.50e-02
-2.00e-02
-1.50e-02
-1.50e-02
-1.50e-02
-1.50e-02
-2.00e-02
-2.00e-02
-2.00e-02
-2.00e-02
-2.00e-02
-1.50e-02
-1.00e-02
-5.00e-03
5.00e-03
1.00e-02
1.50e-02
2.00e-02
2.00e-02
2.00e-02
2.00e-02
2.00e-02
1.50e-02
1.50e-02
1.00e-02
1.00e-02
1.50e-02
2.00e-02
2.50e-02
3.50e-02
4.50e-02
6.00e-02
7.00e-02
7.50e-02
8.50e-02
9.00e-02
9.50e-02
1.00e-01
1.05e-01
1.10e-01
1.15e-01
1.25e-01
1.30e-01
1.40e-01
1.45e-01
1.55e-01
1.60e-01
1.60e-01
1.65e-01
1.65e-01
1.65e-01
1.70e-01
1.75e-01
1.75e-01
1.75e-01
1.75e-01
1.75e-01
1.70e-01
1.65e-01
1.55e-01
1.50e-01
1.45e-01
1.40e-01
1.40e-01
1.40e-01
1.40e-01
1.40e-01
1.35e-01
1.30e-01
1.20e-01
1.10e-01
9.00e-02
7.50e-02
6.00e-02
4.50e-02
3.50e-02
3.00e-02
3.00e-02
2.50e-02
2.50e-02
2.00e-02
2.00e-02
1.00e-02
0.00e+00
-1.00e-02
-2.00e-02
-3.00e-02
-3.50e-02
-4.00e-02
-4.50e-02
-4.50e-02
-4.50e-02
-4.50e-02
-5.00e-02
-5.00e-02
-5.50e-02
-6.00e-02
-6.00e-02
-6.50e-02
-6.50e-02
-7.00e-02
-7.00e-02
-6.50e-02
-6.50e-02
-6.00e-02
-6.00e-02
-6.00e-02
-5.50e-02
-5.50e-02
-6.00e-02
-6.00e-02
-6.00e-02
-6.00e-02
-6.00e-02
-6.00e-02
-6.50e-02
-6.50e-02
-6.50e-02
-6.50e-02
-6.50e-02
-7.00e-02
-7.00e-02
-7.00e-02
-7.50e-02
-7.50e-02
-8.00e-02
-8.50e-02
-9.00e-02
-9.00e-02
-9.50e-02
-9.50e-02
-9.50e-02
-9.00e-02
-8.50e-02
-8.00e-02
-7.50e-02
-7.00e-02
-6.50e-02
-6.50e-02
-6.50e-02
-6.50e-02
-6.50e-02
-7.00e-02
-7.00e-02
-7.00e-02
-6.50e-02
-6.50e-02
-6.00e-02
-6.00e-02
-5.50e-02
-5.50e-02
-6.00e-02
-6.00e-02
-6.50e-02
-6.50e-02
-7.00e-02
-7.00e-02
-7.50e-02
-7.50e-02
-7.50e-02
-7.50e-02
-7.50e-02
-7.50e-02
-7.50e-02
-7.50e-02
-7.50e-02
-8.00e-02
-8.00e-02
-8.00e-02
-8.00e-02
-8.00e-02
-8.00e-02
-8.00e-02
-8.00e-02
-8.00e-02
-8.00e-02
-8.00e-02
-8.00e-02
-8.50e-02
-8.50e-02
-8.50e-02
-8.50e-02
-9.00e-02
-9.00e-02
-9.50e-02
-9.50e-02
-1.00e-01
-1.00e-01
-1.00e-01
-1.00e-01
-1.00e-01
-1.00e-01
-1.00e-01
-1.00e-01
-1.00e-01
-1.00e-01
-1.05e-01
-1.05e-01
-1.10e-01
-1.10e-01
-1.10e-01
-1.15e-01
-1.15e-01
-1.15e-01
-1.15e-01
-1.15e-01
-1.15e-01
-1.15e-01
-1.15e-01
-1.15e-01
-1.10e-01
-1.10e-01
-1.10e-01
-1.05e-01
-1.05e-01
-1.05e-01
-1.10e-01
-1.10e-01
-1.15e-01
-1.20e-01
-1.20e-01
-1.25e-01
-1.20e-01
-1.20e-01
-1.10e-01
-1.05e-01
-1.00e-01
-9.50e-02
-9.00e-02
-9.50e-02
-1.00e-01
-1.05e-01
-1.10e-01
-1.15e-01
-1.20e-01
-1.20e-01
-1.20e-01
-1.20e-01
-1.15e-01
-1.15e-01
-1.15e-01
-1.15e-01
-1.10e-01
-1.10e-01
-1.05e-01
-9.50e-02
-8.50e-02
-7.00e-02
-5.50e-02
-4.00e-02
-2.50e-02
-1.00e-02
0.00e+00
5.00e-03
1.00e-02
1.50e-02
1.50e-02
1.50e-02
1.50e-02
2.00e-02
2.00e-02
2.50e-02
3.00e-02
4.00e-02
4.50e-02
5.00e-02
6.00e-02
6.50e-02
7.00e-02
7.50e-02
8.00e-02
8.00e-02
8.00e-02
8.50e-02
8.50e-02
8.50e-02
8.50e-02
8.00e-02
8.00e-02
8.00e-02
7.50e-02
7.50e-02
7.00e-02
6.50e-02
6.50e-02
6.00e-02
5.50e-02
5.50e-02
5.00e-02
4.50e-02
4.00e-02
4.00e-02
3.50e-02
3.00e-02
3.00e-02
3.00e-02
3.00e-02
3.00e-02
3.50e-02
3.50e-02
3.50e-02
3.50e-02
3.00e-02
2.50e-02
2.00e-02
1.50e-02
1.00e-02
5.00e-03
0.00e+00
-5.00e-03
-5.00e-03
-5.00e-03
-5.00e-03
-5.00e-03
0.00e+00
0.00e+00
5.00e-03
5.00e-03
1.00e-02
1.00e-02
5.00e-03
5.00e-03
5.00e-03
0.00e+00
0.00e+00
0.00e+00
0.00e+00
-5.00e-03
-5.00e-03
-5.00e-03
-1.00e-02
-2.00e-02
-2.50e-02
-3.50e-02
-4.00e-02
-4.50e-02
-4.00e-02
-2.50e-02
0.00e+00
4.00e-02
9.00e-02
1.55e-01
2.30e-01
3.10e-01
4.00e-01
4.90e-01
5.75e-01
6.50e-01
7.05e-01
7.35e-01
7.35e-01
7.05e-01
6.40e-01
5.50e-01
4.40e-01
3.20e-01
2.05e-01
1.00e-01
1.50e-02
-4.50e-02
-7.50e-02
-8.50e-02
-7.50e-02
-5.50e-02
-3.50e-02
-1.00e-02
5.00e-03
1.00e-02
1.50e-02
1.50e-02
1.50e-02
1.50e-02
2.00e-02
2.50e-02
3.00e-02
3.00e-02
3.50e-02
3.50e-02
3.00e-02
2.50e-02
2.00e-02
1.50e-02
1.00e-02
1.00e-02
1.50e-02
2.00e-02
2.50e-02
3.00e-02
3.00e-02
3.50e-02
3.00e-02
3.00e-02
2.50e-02
2.50e-02
2.50e-02
2.00e-02
2.00e-02
2.00e-02
2.00e-02
2.00e-02
2.00e-02
2.00e-02
2.00e-02
2.00e-02
2.00e-02
2.50e-02
2.50e-02
3.00e-02
3.50e-02
4.00e-02
4.00e-02
4.50e-02
4.50e-02
4.50e-02
4.50e-02
4.50e-02
4.00e-02
4.00e-02
4.00e-02
4.50e-02
4.50e-02
4.50e-02
5.00e-02
5.00e-02
5.00e-02
5.50e-02
5.50e-02
6.00e-02
6.50e-02
7.00e-02
7.50e-02
8.00e-02
8.50e-02
9.00e-02
9.00e-02
9.50e-02
9.50e-02
9.50e-02
1.00e-01
1.05e-01
1.10e-01
1.20e-01
1.30e-01
1.40e-01
1.50e-01
1.65e-01
1.70e-01
1.80e-01
1.85e-01
1.85e-01
1.90e-01
1.90e-01
1.90e-01
1.90e-01
1.90e-01
1.95e-01
2.00e-01
2.05e-01
2.05e-01
2.10e-01
2.15e-01
2.15e-01
2.15e-01
2.10e-01
2.05e-01
2.00e-01
1.95e-01
1.90e-01
1.85e-01
1.85e-01
1.80e-01
1.75e-01
1.70e-01
1.60e-01
1.50e-01
1.35e-01
1.20e-01
1.05e-01
9.00e-02
7.50e-02
6.50e-02
5.50e-02
5.00e-02
4.50e-02
4.50e-02
4.00e-02
3.00e-02
2.50e-02
1.50e-02
5.00e-03
-5.00e-03
-1.50e-02
-2.00e-02
-2.50e-02
-3.00e-02
-3.00e-02
-3.50e-02
-3.50e-02
-4.00e-02
-5.00e-02
-5.50e-02
-6.00e-02
-6.50e-02
-6.50e-02
-6.50e-02
-6.50e-02
-6.00e-02
-6.00e-02
-6.00e-02
-6.50e-02
-7.00e-02
-7.50e-02
-8.00e-02
-9.00e-02
-9.00e-02
-9.00e-02
-9.00e-02
-8.50e-02
-8.00e-02
-7.50e-02
-7.50e-02
-7.50e-02
-8.00e-02
-8.50e-02
-9.00e-02
-9.50e-02
-1.00e-01
-1.00e-01
-1.00e-01
-1.00e-01
-9.00e-02
-8.50e-02
-7.50e-02
-7.00e-02
-6.50e-02
-6.00e-02
-6.50e-02
-6.50e-02
-7.00e-02
-7.50e-02
-8.00e-02
-8.50e-02
-8.50e-02
-9.00e-02
-9.00e-02
-9.00e-02
-8.50e-02
-8.50e-02
-8.00e-02
-8.00e-02
-7.50e-02
-7.50e-02
-7.00e-02
-7.00e-02
-7.00e-02
-7.00e-02
-7.50e-02
-7.50e-02
-8.00e-02
-8.50e-02
-8.50e-02
-8.50e-02
-8.50e-02
-8.50e-02
-8.00e-02
-8.00e-02
-7.50e-02
-7.50e-02
-7.50e-02
-7.50e-02
-7.50e-02
-8.00e-02
-8.00e-02
-8.00e-02
-8.00e-02
-8.00e-02
-8.00e-02
-8.00e-02
-8.00e-02
-8.50e-02
-9.00e-02
-9.00e-02
-9.50e-02
-9.50e-02
-1.00e-01
-1.00e-01
-1.00e-01
-9.50e-02
-9.50e-02
-9.50e-02
-9.00e-02
-9.00e-02
-9.00e-02
-9.00e-02
-9.00e-02
-9.50e-02
-9.50e-02
-9.50e-02
-9.00e-02
-9.00e-02
-8.50e-02
-8.00e-02
-7.50e-02
-7.00e-02
-7.00e-02
-6.50e-02
-6.50e-02
-6.50e-02
-7.00e-02
-7.50e-02
-8.00e-02
-9.00e-02
-9.50e-02
-9.50e-02
-1.00e-01
-9.50e-02
-9.50e-02
-9.00e-02
-8.00e-02
-8.00e-02
-7.50e-02
-7.50e-02
-7.50e-02
-8.00e-02
-8.50e-02
-8.50e-02
-9.00e-02
-9.50e-02
-9.50e-02
-9.50e-02
-9.50e-02
-9.50e-02
-9.50e-02
-9.50e-02
-9.50e-02
-1.00e-01
-1.00e-01
-1.00e-01
-1.00e-01
-1.00e-01
-1.00e-01
-1.00e-01
-1.00e-01
-1.00e-01
-9.50e-02
-9.50e-02
-9.50e-02
-9.00e-02
-8.50e-02
-8.50e-02
-8.00e-02
-7.50e-02
-7.50e-02
-7.00e-02
-7.00e-02
-7.50e-02
-7.50e-02
-8.00e-02
-8.50e-02
-9.00e-02
-9.00e-02
-9.00e-02
-9.00e-02
-9.00e-02
-8.50e-02
-8.50e-02
-8.00e-02
-8.00e-02
-8.00e-02
-8.00e-02
-8.00e-02
-8.00e-02
-8.50e-02
-8.50e-02
-8.50e-02
-8.00e-02
-8.00e-02
-8.00e-02
-7.50e-02
-7.50e-02
-7.00e-02
-7.00e-02
-6.50e-02
-6.50e-02
-6.50e-02
-6.50e-02
-6.50e-02
-6.50e-02
-7.00e-02
-7.50e-02
-8.00e-02
-8.00e-02
-8.50e-02
-8.50e-02
-8.50e-02
-8.00e-02
-7.50e-02
-7.50e-02
-7.00e-02
-7.00e-02
-7.00e-02
-7.00e-02
-7.00e-02
-7.00e-02
-7.00e-02
-6.50e-02
-6.50e-02
-6.00e-02
-6.00e-02
-5.50e-02
-5.50e-02
-5.50e-02
-5.50e-02
-5.50e-02
-5.50e-02
-5.50e-02
-5.50e-02
-5.50e-02
-5.00e-02
-5.00e-02
-4.50e-02
-4.50e-02
-4.00e-02
-4.00e-02
-3.50e-02
-3.00e-02
-2.50e-02
-2.00e-02
-2.00e-02
-1.50e-02
-1.00e-02
-5.00e-03
-5.00e-03
-5.00e-03
-5.00e-03
-5.00e-03
-5.00e-03
-1.00e-02
-1.00e-02
-1.00e-02
-1.00e-02
-1.00e-02
-1.00e-02
-1.00e-02
-1.00e-02
-1.50e-02
-1.50e-02
-2.00e-02
-2.50e-02
-3.00e-02
-4.00e-02
-4.50e-02
-5.50e-02
-6.00e-02
-7.00e-02
-7.50e-02
-7.50e-02
-8.00e-02
-8.00e-02
-7.50e-02
-7.00e-02
-7.00e-02
-6.50e-02
-6.00e-02
-6.00e-02
-5.50e-02
-5.50e-02
-6.00e-02
-6.00e-02
-6.50e-02
-6.50e-02
-7.00e-02
-7.50e-02
-7.50e-02
-8.00e-02
-8.50e-02
-8.50e-02
-8.50e-02
-8.50e-02
-8.50e-02
-8.50e-02
-8.50e-02
-8.50e-02
-8.50e-02
-8.50e-02
-8.50e-02
-8.50e-02
-8.00e-02
-8.00e-02
-7.50e-02
-7.50e-02
-7.00e-02
-7.00e-02
-7.00e-02
-7.50e-02
-8.00e-02
-8.50e-02
-9.00e-02
-9.50e-02
-9.50e-02
-9.00e-02
-8.00e-02
-6.00e-02
-3.00e-02
1.50e-02
7.00e-02
1.35e-01
2.15e-01
3.05e-01
3.95e-01
4.85e-01
5.60e-01
6.25e-01
6.65e-01
6.70e-01
6.50e-01
5.90e-01
5.05e-01
4.00e-01
2.80e-01
1.65e-01
5.50e-02
-3.50e-02
-1.00e-01
-1.35e-01
-1.50e-01
-1.50e-01
-1.35e-01
-1.10e-01
-9.00e-02
-7.50e-02
-6.00e-02
-5.00e-02
-4.50e-02
-4.50e-02
-4.00e-02
-3.50e-02
-3.00e-02
-2.50e-02
-2.00e-02
-1.50e-02
-1.50e-02
-1.50e-02
-2.00e-02
-2.00e-02
-2.50e-02
-2.50e-02
-2.50e-02
-2.50e-02
-2.50e-02
-2.50e-02
-2.00e-02
-2.50e-02
-2.50e-02
-2.50e-02
-2.50e-02
-2.00e-02
-2.00e-02
-1.50e-02
-1.50e-02
-1.00e-02
-1.00e-02
-5.00e-03
-5.00e-03
-5.00e-03
-5.00e-03
-1.00e-02
-1.00e-02
-1.00e-02
-5.00e-03
-1.00e-02
-1.00e-02
-1.00e-02
-1.00e-02
-1.00e-02
-1.00e-02
-1.00e-02
-1.00e-02
-5.00e-03
0.00e+00
5.00e-03
1.00e-02
1.50e-02
1.50e-02
2.00e-02
2.00e-02
2.50e-02
2.50e-02
3.00e-02
3.50e-02
4.00e-02
5.00e-02
5.50e-02
6.00e-02
6.00e-02
6.50e-02
6.50e-02
6.50e-02
6.50e-02
6.50e-02
7.00e-02
7.50e-02
8.50e-02
9.00e-02
9.50e-02
1.05e-01
1.10e-01
1.15e-01
1.20e-01
1.25e-01
1.30e-01
1.35e-01
1.45e-01
1.50e-01
1.60e-01
1.65e-01
1.75e-01
1.80e-01
1.85e-01
1.85e-01
1.90e-01
1.95e-01
1.95e-01
2.00e-01
2.05e-01
2.10e-01
2.10e-01
2.15e-01
2.20e-01
2.25e-01
2.25e-01
2.25e-01
2.20e-01
2.15e-01
2.05e-01
1.95e-01
1.80e-01
1.70e-01
1.55e-01
1.45e-01
1.40e-01
1.35e-01
1.35e-01
1.35e-01
1.35e-01
1.30e-01
1.25e-01
1.15e-01
1.00e-01
8.00e-02
6.50e-02
4.50e-02
3.00e-02
2.00e-02
1.50e-02
1.50e-02
1.50e-02
1.50e-02
1.50e-02
1.50e-02
1.00e-02
0.00e+00
-5.00e-03
-1.50e-02
-2.50e-02
-2.50e-02
-3.00e-02
-3.00e-02
-3.00e-02
-3.00e-02
-3.00e-02
-3.00e-02
-3.00e-02
-3.50e-02
-3.50e-02
-4.00e-02
-4.50e-02
-5.00e-02
-5.00e-02
-5.00e-02
-5.00e-02
-5.00e-02
-5.00e-02
-4.50e-02
-4.50e-02
-4.50e-02
-5.00e-02
-5.00e-02
-5.50e-02
-5.50e-02
-5.50e-02
-5.50e-02
-5.50e-02
-5.00e-02
-5.00e-02
-4.50e-02
-4.00e-02
-3.50e-02
-3.00e-02
-3.00e-02
-3.50e-02
-4.00e-02
-4.50e-02
-5.00e-02
-5.50e-02
-6.00e-02
-6.00e-02
-6.50e-02
-6.50e-02
-6.50e-02
-6.50e-02
-6.00e-02
-5.50e-02
-5.00e-02
-5.00e-02
-4.50e-02
-4.50e-02
-4.50e-02
-4.50e-02
-5.00e-02
-5.00e-02
-5.50e-02
-5.50e-02
-5.50e-02
-5.50e-02
-5.00e-02
-4.00e-02
-3.00e-02
-2.50e-02
-2.00e-02
-1.50e-02
-1.50e-02
-2.00e-02
-2.50e-02
-3.00e-02
-4.00e-02
-4.50e-02
-4.50e-02
-4.50e-02
-4.50e-02
-4.00e-02
-3.50e-02
-3.00e-02
-3.00e-02
-2.50e-02
-2.50e-02
-2.50e-02
-2.50e-02
-3.00e-02
-3.00e-02
-3.50e-02
-3.50e-02
-4.00e-02
-4.00e-02
-4.50e-02
-4.50e-02
-5.00e-02
-5.00e-02
-5.50e-02
-6.00e-02
-6.00e-02
-6.00e-02
-6.00e-02
-5.50e-02
-5.00e-02
-4.50e-02
-4.00e-02
-3.50e-02
-3.50e-02
-3.50e-02
-4.00e-02
-4.50e-02
-5.50e-02
-6.00e-02
-7.00e-02
-7.00e-02
-7.50e-02
-7.50e-02
-7.00e-02
-7.00e-02
-6.50e-02
-6.50e-02
-6.50e-02
-6.50e-02
-7.00e-02
-7.00e-02
-7.50e-02
-7.50e-02
-7.50e-02
-7.00e-02
-7.00e-02
-6.50e-02
-6.00e-02
-5.50e-02
-5.50e-02
-5.00e-02
-5.00e-02
-5.00e-02
-5.00e-02
-5.00e-02
-5.00e-02
-5.50e-02
-5.50e-02
-6.00e-02
-6.50e-02
-7.00e-02
-7.50e-02
-7.50e-02
-8.00e-02
-8.00e-02
-7.50e-02
-7.00e-02
-6.50e-02
-6.00e-02
-5.50e-02
-5.50e-02
-5.50e-02
-6.00e-02
-6.50e-02
-6.50e-02
-7.00e-02
-7.50e-02
-8.00e-02
-8.50e-02
-8.50e-02
-9.00e-02
-9.00e-02
-9.00e-02
-9.00e-02
-9.00e-02
-9.00e-02
-8.50e-02
-8.50e-02
-8.00e-02
-8.00e-02
-7.50e-02
-7.00e-02
-7.00e-02
-6.50e-02
-6.50e-02
-6.50e-02
-6.50e-02
-6.50e-02
-7.00e-02
-7.00e-02
-7.50e-02
-7.50e-02
-7.50e-02
-7.00e-02
-7.00e-02
-6.50e-02
-6.00e-02
-5.50e-02
-4.50e-02
-4.00e-02
-3.50e-02
-3.50e-02
-3.00e-02
-2.50e-02
-2.00e-02
-1.50e-02
-1.00e-02
0.00e+00
5.00e-03
1.00e-02
1.50e-02
2.00e-02
2.00e-02
2.50e-02
2.50e-02
3.00e-02
3.00e-02
3.50e-02
4.00e-02
4.50e-02
4.50e-02
5.00e-02
5.50e-02
6.00e-02
6.00e-02
6.00e-02
6.00e-02
6.00e-02
6.00e-02
6.00e-02
6.50e-02
6.50e-02
7.00e-02
7.50e-02
8.00e-02
8.50e-02
9.00e-02
9.00e-02
9.50e-02
1.00e-01
1.05e-01
1.10e-01
1.10e-01
1.15e-01
1.15e-01
1.15e-01
1.15e-01
1.15e-01
1.15e-01
1.10e-01
1.05e-01
1.00e-01
1.00e-01
1.00e-01
9.50e-02
9.50e-02
9.50e-02
9.50e-02
9.50e-02
9.50e-02
9.00e-02
8.50e-02
8.50e-02
8.00e-02
7.50e-02
7.50e-02
7.50e-02
7.00e-02
7.00e-02
6.50e-02
6.00e-02
5.50e-02
5.00e-02
4.50e-02
4.00e-02
4.00e-02
3.50e-02
3.50e-02
4.00e-02
4.00e-02
3.50e-02
3.50e-02
3.00e-02
2.50e-02
2.00e-02
1.50e-02
1.00e-02
1.00e-02
1.00e-02
1.50e-02
2.00e-02
2.50e-02
3.00e-02
3.50e-02
4.00e-02
4.00e-02
4.00e-02
3.50e-02
3.00e-02
2.50e-02
2.00e-02
1.50e-02
1.50e-02
1.50e-02
1.50e-02
1.50e-02
1.50e-02
1.50e-02
1.00e-02
5.00e-03
-5.00e-03
-1.00e-02
-1.50e-02
-1.50e-02
-5.00e-03
1.50e-02
4.50e-02
9.00e-02
1.45e-01
2.10e-01
2.85e-01
3.65e-01
4.45e-01
5.20e-01
5.85e-01
6.30e-01
6.55e-01
6.55e-01
6.30e-01
5.70e-01
4.90e-01
3.90e-01
2.80e-01
1.65e-01
6.50e-02
-1.50e-02
-7.50e-02
-1.05e-01
-1.15e-01
-1.00e-01
-8.00e-02
-5.00e-02
-2.00e-02
5.00e-03
2.00e-02
3.00e-02
3.00e-02
3.00e-02
3.00e-02
3.00e-02
3.00e-02
3.50e-02
4.00e-02
4.00e-02
4.00e-02
4.00e-02
3.50e-02
3.00e-02
2.50e-02
2.00e-02
1.50e-02
1.50e-02
1.50e-02
1.50e-02
2.00e-02
2.00e-02
2.50e-02
2.50e-02
2.50e-02
3.00e-02
3.00e-02
2.50e-02
2.50e-02
2.50e-02
2.50e-02
2.50e-02
2.50e-02
2.50e-02
3.00e-02
3.00e-02
3.00e-02
3.00e-02
3.00e-02
3.00e-02
3.00e-02
3.00e-02
3.00e-02
3.50e-02
3.50e-02
4.00e-02
4.50e-02
5.00e-02
5.50e-02
6.00e-02
6.50e-02
6.50e-02
7.00e-02
6.50e-02
6.50e-02
6.00e-02
5.50e-02
5.00e-02
5.00e-02
5.00e-02
5.00e-02
5.50e-02
5.50e-02
6.00e-02
6.50e-02
7.00e-02
7.50e-02
8.00e-02
8.50e-02
9.50e-02
1.00e-01
1.10e-01
1.20e-01
1.25e-01
1.30e-01
1.35e-01
1.40e-01
1.40e-01
1.40e-01
1.45e-01
1.45e-01
1.50e-01
1.55e-01
1.65e-01
1.70e-01
1.80e-01
1.85e-01
1.90e-01
1.90e-01
1.90e-01
1.90e-01
1.90e-01
1.85e-01
1.85e-01
1.85e-01
1.85e-01
1.90e-01
1.95e-01
1.95e-01
1.95e-01
1.95e-01
1.90e-01
1.90e-01
1.80e-01
1.75e-01
1.65e-01
1.55e-01
1.45e-01
1.35e-01
1.25e-01
1.10e-01
1.00e-01
9.00e-02
7.50e-02
6.00e-02
5.00e-02
4.00e-02
3.00e-02
2.00e-02
1.00e-02
5.00e-03
0.00e+00
-1.00e-02
-1.50e-02
-2.00e-02
-2.50e-02
-3.00e-02
-4.00e-02
-4.50e-02
-5.00e-02
-5.50e-02
-5.50e-02
-6.00e-02
-6.00e-02
-6.50e-02
-6.50e-02
-7.00e-02
-8.00e-02
-8.50e-02
-9.50e-02
-1.00e-01
-1.05e-01
-1.10e-01
-1.10e-01
-1.10e-01
-1.10e-01
-1.05e-01
-1.05e-01
-1.00e-01
-1.00e-01
-1.00e-01
-1.00e-01
-1.05e-01
-1.05e-01
-1.05e-01
-1.05e-01
-1.05e-01
-1.05e-01
-1.05e-01
-1.05e-01
-1.10e-01
-1.10e-01
-1.15e-01
-1.15e-01
-1.15e-01
-1.20e-01
-1.20e-01
-1.15e-01
-1.15e-01
-1.10e-01
-1.10e-01
-1.05e-01
-1.05e-01
-1.05e-01
-1.05e-01
-1.05e-01
-1.05e-01
-1.10e-01
-1.10e-01
-1.10e-01
-1.10e-01
-1.05e-01
-1.05e-01
-1.00e-01
-9.50e-02
-9.50e-02
-9.00e-02
-9.00e-02
-9.00e-02
-9.50e-02
-1.00e-01
-1.00e-01
-1.05e-01
-1.05e-01
-1.05e-01
-1.05e-01
-1.00e-01
-9.00e-02
-8.50e-02
-8.00e-02
-7.50e-02
-7.00e-02
-7.00e-02
-7.50e-02
-8.00e-02
-8.50e-02
-9.00e-02
-9.50e-02
-9.50e-02
-9.50e-02
-9.00e-02
-9.00e-02
-8.50e-02
-8.50e-02
-8.50e-02
-8.50e-02
-8.50e-02
-9.00e-02
-9.00e-02
-9.00e-02
-9.00e-02
-9.00e-02
-8.50e-02
-8.00e-02
-8.00e-02
-8.00e-02
-8.00e-02
-8.50e-02
-9.00e-02
-9.50e-02
-1.00e-01
-1.00e-01
-1.05e-01
-1.05e-01
-1.10e-01
-1.05e-01
-1.05e-01
-1.05e-01
-1.05e-01
-1.00e-01
-1.00e-01
-9.50e-02
-9.50e-02
-9.50e-02
-9.50e-02
-9.50e-02
-1.00e-01
-1.00e-01
-1.05e-01
-1.05e-01
-1.05e-01
-1.10e-01
-1.10e-01
-1.10e-01
-1.10e-01
-1.10e-01
-1.15e-01
-1.15e-01
-1.15e-01
-1.20e-01
-1.20e-01
-1.20e-01
-1.15e-01
-1.10e-01
-1.05e-01
-1.00e-01
-9.50e-02
-9.00e-02
-9.00e-02
-9.00e-02
-9.00e-02
-9.50e-02
-1.00e-01
-1.05e-01
-1.05e-01
-1.10e-01
-1.10e-01
-1.05e-01
-1.05e-01
-1.00e-01
-9.50e-02
-9.50e-02
-9.00e-02
-9.00e-02
-9.00e-02
-9.50e-02
-9.50e-02
-1.00e-01
-1.05e-01
-1.10e-01
-1.10e-01
-1.15e-01
-1.10e-01
-1.10e-01
-1.05e-01
-1.00e-01
-9.50e-02
-9.00e-02
-8.50e-02
-8.50e-02
-9.00e-02
-9.50e-02
-1.05e-01
-1.10e-01
-1.15e-01
-1.20e-01
-1.25e-01
-1.20e-01
-1.15e-01
-1.10e-01
-1.05e-01
-9.50e-02
-9.00e-02
-8.50e-02
-8.50e-02
-8.50e-02
-8.50e-02
-9.00e-02
-9.00e-02
-9.50e-02
-9.50e-02
-9.50e-02
-9.50e-02
-9.50e-02
-9.50e-02
-9.00e-02
-9.00e-02
-9.00e-02
-9.00e-02
-9.00e-02
-9.00e-02
-9.00e-02
-9.50e-02
-9.50e-02
-9.50e-02
-1.00e-01
-1.00e-01
-1.00e-01
-1.00e-01
-9.50e-02
-9.00e-02
-8.50e-02
-8.00e-02
-7.50e-02
-6.50e-02
-6.00e-02
-6.00e-02
-5.50e-02
-5.50e-02
-5.50e-02
-5.50e-02
-5.50e-02
-5.50e-02
-5.00e-02
-5.00e-02
-5.00e-02
-4.50e-02
-4.00e-02
-3.50e-02
-3.50e-02
-3.00e-02
-2.50e-02
-2.50e-02
-2.50e-02
-2.50e-02
-2.50e-02
-3.00e-02
-3.00e-02
-3.50e-02
-4.00e-02
-4.00e-02
-4.50e-02
-4.50e-02
-5.00e-02
-5.00e-02
-5.50e-02
-6.00e-02
-6.00e-02
-6.50e-02
-7.00e-02
-7.00e-02
-7.50e-02
-7.50e-02
-7.50e-02
-7.50e-02
-8.00e-02
-8.00e-02
-8.00e-02
-8.00e-02
-8.50e-02
-9.00e-02
-9.00e-02
-9.50e-02
-1.00e-01
-1.00e-01
-1.05e-01
-1.05e-01
-1.05e-01
-1.05e-01
-1.05e-01
-1.05e-01
-1.05e-01
-1.00e-01
-1.00e-01
-1.00e-01
-1.00e-01
-1.00e-01
-9.50e-02
-9.50e-02
-9.00e-02
-8.50e-02
-8.50e-02
-8.50e-02
-8.50e-02
-8.50e-02
-8.50e-02
-9.00e-02
-9.50e-02
-9.50e-02
-1.00e-01
-1.00e-01
-1.05e-01
-1.05e-01
-1.10e-01
-1.15e-01
-1.15e-01
-1.20e-01
-1.15e-01
-1.10e-01
-9.00e-02
-6.50e-02
-2.00e-02
3.00e-02
1.00e-01
1.75e-01
2.60e-01
3.50e-01
4.35e-01
5.10e-01
5.70e-01
6.05e-01
6.10e-01
5.90e-01
5.40e-01
4.65e-01
3.65e-01
2.60e-01
1.50e-01
4.50e-02
-4.00e-02
-1.05e-01
-1.45e-01
-1.65e-01
-1.65e-01
-1.50e-01
-1.35e-01
-1.15e-01
-9.50e-02
-8.50e-02
-7.50e-02
-7.50e-02
-7.50e-02
-7.50e-02
-7.00e-02
-7.00e-02
-6.50e-02
-6.00e-02
-5.50e-02
-5.00e-02
-5.00e-02
-5.00e-02
-5.00e-02
-5.00e-02
-5.00e-02
-5.00e-02
-4.50e-02
-4.50e-02
-4.50e-02
-4.50e-02
-4.50e-02
-4.50e-02
-4.50e-02
-4.50e-02
-4.00e-02
-4.00e-02
-3.50e-02
-3.50e-02
-3.00e-02
-3.00e-02
-3.00e-02
-3.00e-02
-3.00e-02
-3.00e-02
-3.00e-02
-3.00e-02
-3.00e-02
-2.50e-02
-2.00e-02
-1.50e-02
-1.00e-02
-5.00e-03
-5.00e-03
0.00e+00
0.00e+00
0.00e+00
0.00e+00
0.00e+00
0.00e+00
0.00e+00
0.00e+00
5.00e-03
5.00e-03
1.00e-02
1.50e-02
1.50e-02
2.00e-02
2.00e-02
2.00e-02
2.50e-02
2.50e-02
2.50e-02
2.50e-02
3.00e-02
3.50e-02
4.00e-02
4.50e-02
5.00e-02
5.50e-02
6.00e-02
6.50e-02
7.00e-02
7.50e-02
8.00e-02
8.50e-02
9.00e-02
9.50e-02
1.00e-01
1.05e-01
1.15e-01
1.20e-01
1.30e-01
1.35e-01
1.45e-01
1.50e-01
1.60e-01
1.65e-01
1.70e-01
1.75e-01
1.75e-01
1.80e-01
1.85e-01
1.85e-01
1.85e-01
1.85e-01
1.85e-01
1.85e-01
1.85e-01
1.85e-01
1.85e-01
1.85e-01
1.85e-01
1.80e-01
1.80e-01
1.80e-01
1.75e-01
1.70e-01
1.65e-01
1.55e-01
1.45e-01
1.35e-01
1.25e-01
1.15e-01
1.05e-01
1.00e-01
9.00e-02
8.00e-02
7.00e-02
6.00e-02
5.00e-02
3.50e-02
2.50e-02
1.50e-02
5.00e-03
0.00e+00
-5.00e-03
-5.00e-03
-5.00e-03
-5.00e-03
-5.00e-03
-5.00e-03
-1.00e-02
-1.50e-02
-1.50e-02
-2.00e-02
-2.50e-02
-3.00e-02
-3.50e-02
-3.50e-02
-3.50e-02
-3.50e-02
-3.00e-02
-3.00e-02
-2.50e-02
-2.50e-02
-2.50e-02
-2.50e-02
-3.00e-02
-3.50e-02
-4.00e-02
-4.50e-02
-5.00e-02
-5.50e-02
-6.00e-02
-6.50e-02
-6.50e-02
-6.00e-02
-6.00e-02
-5.50e-02
-5.00e-02
-5.00e-02
-4.50e-02
-4.00e-02
-4.00e-02
-3.50e-02
-3.50e-02
-3.00e-02
-3.00e-02
-3.00e-02
-3.00e-02
-3.00e-02
-3.50e-02
-3.50e-02
-4.00e-02
-4.00e-02
-4.00e-02
-4.00e-02
-3.50e-02
-3.50e-02
-3.00e-02
-2.50e-02
-2.00e-02
-1.50e-02
-1.50e-02
-1.50e-02
-1.00e-02
-1.00e-02
-1.00e-02
-1.00e-02
-1.00e-02
-1.00e-02
-1.00e-02
-1.00e-02
-1.00e-02
-1.50e-02
-2.00e-02
-2.00e-02
-2.50e-02
-2.50e-02
-3.00e-02
-3.00e-02
-2.50e-02
-2.50e-02
-2.50e-02
-2.50e-02
-2.50e-02
-2.50e-02
-2.50e-02
-3.00e-02
-3.00e-02
-3.50e-02
-3.50e-02
-3.50e-02
-3.50e-02
-3.50e-02
-3.00e-02
-2.50e-02
-2.00e-02
-2.00e-02
-1.50e-02
-1.50e-02
-1.50e-02
-1.50e-02
-1.50e-02
-1.50e-02
-2.00e-02
-2.00e-02
-2.50e-02
-2.50e-02
-3.00e-02
-3.00e-02
-3.00e-02
-3.50e-02
-3.50e-02
-4.00e-02
-4.00e-02
-4.00e-02
-4.00e-02
-4.00e-02
-4.00e-02
-4.00e-02
-3.50e-02
-3.50e-02
-3.00e-02
-3.00e-02
-3.00e-02
-3.00e-02
-3.00e-02
-3.50e-02
-4.00e-02
-4.00e-02
-4.50e-02
-4.50e-02
-4.50e-02
-4.00e-02
-4.00e-02
-3.50e-02
-3.50e-02
-3.50e-02
-4.00e-02
-4.50e-02
-5.50e-02
-6.00e-02
-6.50e-02
-6.50e-02
-6.50e-02
-6.50e-02
-6.00e-02
-5.50e-02
-5.00e-02
-4.50e-02
-4.50e-02
-4.50e-02
-4.50e-02
-4.50e-02
-4.50e-02
-5.00e-02
-5.00e-02
-5.00e-02
-5.00e-02
-5.00e-02
-5.00e-02
-5.00e-02
-5.00e-02
-5.00e-02
-5.00e-02
-5.00e-02
-5.50e-02
-5.50e-02
-5.50e-02
-5.50e-02
-5.50e-02
-5.50e-02
-5.50e-02
-5.50e-02
-5.50e-02
-5.00e-02
-5.00e-02
-4.50e-02
-4.50e-02
-4.50e-02
-4.50e-02
-5.00e-02
-5.00e-02
-5.50e-02
-5.50e-02
-6.00e-02
-6.00e-02
-6.00e-02
-6.00e-02
-6.00e-02
-6.50e-02
-6.50e-02
-6.50e-02
-7.00e-02
-7.00e-02
-7.00e-02
-7.50e-02
-7.00e-02
-7.00e-02
-6.50e-02
-6.00e-02
-6.00e-02
-5.50e-02
-5.50e-02
-6.00e-02
-6.00e-02
-6.50e-02
-7.50e-02
-8.00e-02
-8.50e-02
-9.00e-02
-9.00e-02
-8.50e-02
-8.00e-02
-7.50e-02
-7.00e-02
-6.50e-02
-6.00e-02
-6.00e-02
-6.50e-02
-6.50e-02
-7.00e-02
-7.00e-02
-7.00e-02
-7.00e-02
-7.00e-02
-6.50e-02
-6.00e-02
-5.50e-02
-5.50e-02
-5.50e-02
-5.50e-02
-5.50e-02
-5.00e-02
-5.00e-02
-5.00e-02
-4.50e-02
-4.00e-02
-3.50e-02
-3.00e-02
-2.50e-02
-2.00e-02
-2.00e-02
-2.00e-02
-2.00e-02
-2.00e-02
-2.00e-02
-1.50e-02
-5.00e-03
0.00e+00
1.50e-02
2.50e-02
3.50e-02
4.50e-02
5.50e-02
6.50e-02
7.00e-02
7.50e-02
8.00e-02
8.50e-02
9.00e-02
9.00e-02
9.50e-02
1.00e-01
1.00e-01
1.00e-01
1.00e-01
9.50e-02
9.00e-02
8.50e-02
8.00e-02
7.50e-02
7.50e-02
7.50e-02
7.50e-02
8.00e-02
8.50e-02
8.50e-02
9.00e-02
9.00e-02
9.00e-02
9.00e-02
9.00e-02
9.00e-02
8.50e-02
8.50e-02
8.50e-02
8.50e-02
8.00e-02
8.00e-02
8.00e-02
7.50e-02
7.50e-02
7.00e-02
7.00e-02
7.00e-02
7.00e-02
7.00e-02
7.00e-02
7.00e-02
7.00e-02
7.00e-02
7.00e-02
6.50e-02
6.50e-02
6.00e-02
5.50e-02
5.50e-02
5.00e-02
4.50e-02
4.00e-02
3.50e-02
3.00e-02
3.00e-02
3.00e-02
4.00e-02
6.00e-02
8.50e-02
1.30e-01
1.80e-01
2.50e-01
3.25e-01
4.15e-01
5.05e-01
5.95e-01
6.75e-01
7.40e-01
7.80e-01
7.95e-01
7.75e-01
7.25e-01
6.45e-01
5.45e-01
4.30e-01
3.10e-01
1.95e-01
1.00e-01
3.00e-02
-1.50e-02
-3.50e-02
-3.00e-02
-1.50e-02
1.00e-02
3.50e-02
6.00e-02
7.50e-02
8.50e-02
8.50e-02
8.50e-02
8.50e-02
8.00e-02
8.00e-02
8.50e-02
8.50e-02
8.50e-02
9.00e-02
8.50e-02
8.50e-02
8.00e-02
7.50e-02
7.50e-02
7.00e-02
6.50e-02
6.50e-02
6.50e-02
6.50e-02
6.00e-02
6.00e-02
6.00e-02
6.00e-02
6.00e-02
6.00e-02
6.50e-02
6.50e-02
7.00e-02
7.00e-02
7.50e-02
7.50e-02
7.50e-02
7.50e-02
7.50e-02
7.50e-02
7.50e-02
7.50e-02
7.50e-02
8.00e-02
8.50e-02
9.00e-02
9.50e-02
1.00e-01
1.05e-01
1.05e-01
1.05e-01
1.05e-01
1.05e-01
1.05e-01
1.05e-01
1.05e-01
1.05e-01
1.10e-01
1.10e-01
1.15e-01
1.20e-01
1.20e-01
1.20e-01
1.20e-01
1.20e-01
1.20e-01
1.20e-01
1.20e-01
1.20e-01
1.20e-01
1.25e-01
1.30e-01
1.40e-01
1.45e-01
1.50e-01
1.60e-01
1.65e-01
1.70e-01
1.75e-01
1.85e-01
1.90e-01
2.00e-01
2.05e-01
2.15e-01
2.20e-01
2.30e-01
2.35e-01
2.40e-01
2.45e-01
2.50e-01
2.55e-01
2.55e-01
2.60e-01
2.60e-01
2.65e-01
2.70e-01
2.70e-01
2.75e-01
2.75e-01
2.80e-01
2.80e-01
2.85e-01
2.85e-01
2.85e-01
2.85e-01
2.80e-01
2.75e-01
2.70e-01
2.60e-01
2.45e-01
2.35e-01
2.20e-01
2.10e-01
1.95e-01
1.85e-01
1.75e-01
1.65e-01
1.50e-01
1.40e-01
1.25e-01
1.10e-01
9.50e-02
8.50e-02
7.00e-02
6.50e-02
5.50e-02
5.00e-02
4.50e-02
4.00e-02
3.50e-02
2.50e-02
1.50e-02
5.00e-03
-1.00e-02
-2.00e-02
-3.00e-02
-3.50e-02
-4.00e-02
-4.50e-02
-4.50e-02
-4.50e-02
-4.00e-02
-4.50e-02
-4.50e-02
-4.50e-02
-5.00e-02
-5.50e-02
-6.00e-02
-6.00e-02
-6.00e-02
-6.00e-02
-6.00e-02
-6.00e-02
-6.00e-02
-6.00e-02
-6.50e-02
-7.00e-02
-7.00e-02
-7.50e-02
-8.00e-02
-8.00e-02
-8.00e-02
-8.00e-02
-8.00e-02
-7.50e-02
-7.50e-02
-7.00e-02
-7.00e-02
-7.00e-02
-7.00e-02
-7.50e-02
-7.50e-02
-7.50e-02
-7.50e-02
-7.50e-02
-7.50e-02
-7.50e-02
-7.50e-02
-8.00e-02
-8.50e-02
-8.50e-02
-9.00e-02
-9.50e-02
-9.50e-02
-1.00e-01
-9.50e-02
-9.50e-02
-9.00e-02
-9.00e-02
-8.50e-02
-8.50e-02
-8.50e-02
-8.50e-02
-8.50e-02
-8.00e-02
-8.00e-02
-8.00e-02
-7.50e-02
-7.50e-02
-7.50e-02
-7.00e-02
-7.00e-02
-7.50e-02
-7.50e-02
-8.00e-02
-8.50e-02
-9.00e-02
-9.00e-02
-9.50e-02
-9.50e-02
-9.50e-02
-9.50e-02
-9.00e-02
-9.00e-02
-8.50e-02
-8.50e-02
-8.50e-02
-8.50e-02
-9.00e-02
-9.50e-02
-1.00e-01
-1.05e-01
-1.10e-01
-1.10e-01
-1.15e-01
-1.15e-01
-1.15e-01
-1.10e-01
-1.10e-01
-1.05e-01
-1.00e-01
-1.00e-01
-9.50e-02
-9.50e-02
-9.50e-02
-1.00e-01
-1.00e-01
-1.00e-01
-1.00e-01
-1.00e-01
-1.00e-01
-1.00e-01
-1.00e-01
-1.00e-01
-1.05e-01
-1.05e-01
-1.10e-01
-1.15e-01
-1.20e-01
-1.25e-01
-1.30e-01
-1.30e-01
-1.30e-01
-1.35e-01
-1.35e-01
-1.35e-01
-1.30e-01
-1.30e-01
-1.30e-01
-1.25e-01
-1.25e-01
-1.20e-01
-1.20e-01
-1.20e-01
-1.20e-01
-1.25e-01
-1.25e-01
-1.30e-01
-1.35e-01
-1.45e-01
-1.45e-01
-1.50e-01
-1.50e-01
-1.50e-01
-1.45e-01
-1.40e-01
-1.40e-01
-1.35e-01
-1.35e-01
-1.30e-01
-1.30e-01
-1.30e-01
-1.30e-01
-1.30e-01
-1.30e-01
-1.30e-01
-1.30e-01
-1.30e-01
-1.30e-01
-1.30e-01
-1.30e-01
-1.30e-01
-1.30e-01
-1.30e-01
-1.30e-01
-1.25e-01
-1.25e-01
-1.20e-01
-1.20e-01
-1.20e-01
-1.20e-01
-1.25e-01
-1.25e-01
-1.30e-01
-1.30e-01
-1.30e-01
-1.30e-01
-1.30e-01
-1.25e-01
-1.20e-01
-1.15e-01
-1.10e-01
-1.10e-01
-1.05e-01
-1.05e-01
-1.05e-01
-1.05e-01
-1.05e-01
-1.10e-01
-1.10e-01
-1.10e-01
-1.15e-01
-1.15e-01
-1.15e-01
-1.15e-01
-1.15e-01
-1.10e-01
-1.05e-01
-1.00e-01
-9.50e-02
-9.00e-02
-9.00e-02
-9.00e-02
-9.00e-02
-9.00e-02
-9.50e-02
-9.50e-02
-9.50e-02
-9.50e-02
-9.50e-02
-9.00e-02
-8.50e-02
-8.50e-02
-8.50e-02
-8.50e-02
-8.50e-02
-8.50e-02
-8.00e-02
-8.00e-02
-7.50e-02
-6.50e-02
-6.00e-02
-5.00e-02
-4.00e-02
-3.50e-02
-3.00e-02
-2.50e-02
-2.50e-02
-2.50e-02
-3.00e-02
-3.50e-02
-4.00e-02
-5.00e-02
-6.00e-02
-6.50e-02
-7.50e-02
-8.00e-02
-9.00e-02
-9.50e-02
-1.00e-01
-1.00e-01
-1.05e-01
-1.05e-01
-1.10e-01
-1.15e-01
-1.15e-01
-1.20e-01
-1.25e-01
-1.25e-01
-1.25e-01
-1.25e-01
-1.20e-01
-1.15e-01
-1.15e-01
-1.10e-01
-1.05e-01
-1.05e-01
-1.05e-01
-1.05e-01
-1.10e-01
-1.10e-01
-1.15e-01
-1.20e-01
-1.20e-01
-1.25e-01
-1.30e-01
-1.30e-01
-1.35e-01
-1.35e-01
-1.30e-01
-1.30e-01
-1.25e-01
-1.20e-01
-1.20e-01
-1.15e-01
-1.15e-01
-1.15e-01
-1.20e-01
-1.25e-01
-1.30e-01
-1.30e-01
-1.35e-01
-1.35e-01
-1.35e-01
-1.35e-01
-1.35e-01
-1.35e-01
-1.30e-01
-1.25e-01
-1.10e-01
-8.00e-02
-4.00e-02
1.50e-02
8.50e-02
1.70e-01
2.55e-01
3.45e-01
4.25e-01
4.90e-01
5.30e-01
5.50e-01
5.40e-01
5.00e-01
4.40e-01
3.55e-01
2.60e-01
1.60e-01
6.00e-02
-3.00e-02
-1.00e-01
-1.55e-01
-1.90e-01
-2.05e-01
-2.00e-01
-1.85e-01
-1.60e-01
-1.30e-01
-1.05e-01
-8.50e-02
-7.50e-02
-6.50e-02
-6.50e-02
-6.50e-02
-6.50e-02
-6.50e-02
-6.00e-02
-6.00e-02
-6.00e-02
-6.00e-02
-6.50e-02
-7.00e-02
-7.50e-02
-8.00e-02
-8.50e-02
-8.50e-02
-8.50e-02
-8.00e-02
-7.50e-02
-6.50e-02
-6.00e-02
-5.50e-02
-5.00e-02
-5.00e-02
-5.00e-02
-5.00e-02
-5.50e-02
-5.50e-02
-5.50e-02
-5.50e-02
-5.50e-02
-5.00e-02
-5.00e-02
-4.50e-02
-4.50e-02
-4.50e-02
-4.50e-02
-4.50e-02
-4.50e-02
-4.50e-02
-4.50e-02
-4.50e-02
-4.50e-02
-4.00e-02
-4.00e-02
-3.50e-02
-3.00e-02
-2.00e-02
-1.50e-02
-1.00e-02
-5.00e-03
0.00e+00
0.00e+00
5.00e-03
5.00e-03
1.00e-02
1.00e-02
1.50e-02
2.00e-02
2.00e-02
2.50e-02
3.00e-02
3.00e-02
3.50e-02
3.50e-02
3.00e-02
3.00e-02
3.00e-02
3.00e-02
3.50e-02
4.00e-02
4.50e-02
5.50e-02
6.50e-02
7.50e-02
8.50e-02
9.50e-02
1.00e-01
1.10e-01
1.15e-01
1.20e-01
1.25e-01
1.30e-01
1.35e-01
1.40e-01
1.45e-01
1.50e-01
1.55e-01
1.60e-01
1.60e-01
1.60e-01
1.60e-01
1.60e-01
1.60e-01
1.60e-01
1.60e-01
1.65e-01
1.65e-01
1.70e-01
1.75e-01
1.75e-01
1.80e-01
1.75e-01
1.75e-01
1.70e-01
1.65e-01
1.55e-01
1.50e-01
1.40e-01
1.30e-01
1.20e-01
1.10e-01
1.00e-01
9.00e-02
8.00e-02
7.00e-02
6.00e-02
5.50e-02
5.00e-02
4.50e-02
4.00e-02
3.50e-02
3.00e-02
2.50e-02
2.00e-02
1.00e-02
0.00e+00
-1.00e-02
-2.00e-02
-2.50e-02
-3.00e-02
-3.50e-02
-4.00e-02
-4.00e-02
-4.00e-02
-4.00e-02
-3.50e-02
-3.50e-02
-3.50e-02
-4.00e-02
-4.00e-02
-4.00e-02
-4.50e-02
-5.00e-02
-5.00e-02
-5.00e-02
-5.50e-02
-5.50e-02
-5.50e-02
-5.50e-02
-5.50e-02
-5.50e-02
-5.00e-02
-5.00e-02
-5.00e-02
-4.50e-02
-4.50e-02
-4.50e-02
-4.50e-02
-4.00e-02
-4.00e-02
-4.00e-02
-4.00e-02
-4.00e-02
-4.00e-02
-4.00e-02
-4.00e-02
-3.50e-02
-3.50e-02
-3.50e-02
-3.50e-02
-4.00e-02
-4.00e-02
-4.00e-02
-4.50e-02
-4.50e-02
-4.50e-02
-4.50e-02
-4.50e-02
-4.00e-02
-3.50e-02
-3.50e-02
-3.00e-02
-2.50e-02
-2.50e-02
-2.00e-02
-2.00e-02
-2.00e-02
-2.50e-02
-2.50e-02
-3.00e-02
-3.50e-02
-3.50e-02
-4.00e-02
-4.00e-02
-4.00e-02
-4.00e-02
-3.50e-02
-3.50e-02
-2.50e-02
-2.00e-02
-1.50e-02
-1.50e-02
-1.50e-02
-1.50e-02
-1.50e-02
-2.00e-02
-2.50e-02
-3.00e-02
-3.00e-02
-3.50e-02
-3.50e-02
-3.00e-02
-3.00e-02
-3.00e-02
-2.50e-02
-2.50e-02
-2.50e-02
-2.50e-02
-2.50e-02
-2.50e-02
-2.50e-02
-2.50e-02
-3.00e-02
-3.00e-02
-3.00e-02
-3.50e-02
-3.50e-02
-4.00e-02
-4.00e-02
-4.50e-02
-4.50e-02
-4.50e-02
-4.50e-02
-4.50e-02
-4.50e-02
-4.50e-02
-5.00e-02
-5.00e-02
-5.00e-02
-5.00e-02
-5.00e-02
-5.00e-02
-4.50e-02
-4.50e-02
-4.00e-02
-4.00e-02
-4.00e-02
-4.00e-02
-4.00e-02
-4.50e-02
-4.50e-02
-4.50e-02
-4.50e-02
-4.50e-02
-4.00e-02
-3.50e-02
-3.00e-02
-3.00e-02
-2.50e-02
-2.50e-02
-2.50e-02
-3.00e-02
-3.00e-02
-3.50e-02
-4.00e-02
-4.00e-02
-4.50e-02
-4.00e-02
-4.00e-02
-3.50e-02
-3.00e-02
-3.00e-02
-3.00e-02
-3.00e-02
-3.50e-02
-4.00e-02
-4.50e-02
-5.50e-02
-6.00e-02
-6.50e-02
-7.00e-02
-7.00e-02
-7.00e-02
-6.50e-02
-6.00e-02
-5.50e-02
-5.00e-02
-4.50e-02
-4.50e-02
-4.00e-02
-4.00e-02
-3.50e-02
-3.50e-02
-3.50e-02
-3.50e-02
-3.50e-02
-3.50e-02
-4.00e-02
-4.00e-02
-4.50e-02
-4.50e-02
-5.00e-02
-5.00e-02
-5.00e-02
-5.00e-02
-5.00e-02
-5.00e-02
-5.00e-02
-5.00e-02
-5.00e-02
-5.00e-02
-5.00e-02
-5.00e-02
-5.00e-02
-5.50e-02
-5.50e-02
-5.00e-02
-4.50e-02
-4.00e-02
-3.50e-02
-2.50e-02
-1.50e-02
-1.00e-02
-5.00e-03
-5.00e-03
-1.00e-02
-1.00e-02
-1.50e-02
-2.00e-02
-2.50e-02
-3.00e-02
-2.50e-02
-2.00e-02
-1.50e-02
-5.00e-03
5.00e-03
1.00e-02
2.00e-02
2.00e-02
2.50e-02
2.50e-02
2.00e-02
2.00e-02
1.50e-02
1.50e-02
1.50e-02
1.00e-02
1.00e-02
5.00e-03
0.00e+00
-1.00e-02
-2.00e-02
-3.00e-02
-4.00e-02
-5.00e-02
-5.50e-02
-6.00e-02
-6.00e-02
-6.00e-02
-6.00e-02
-5.50e-02
-5.50e-02
-5.50e-02
-5.50e-02
-5.50e-02
-5.50e-02
-6.00e-02
-6.00e-02
-6.00e-02
-6.00e-02
-6.00e-02
-6.00e-02
-6.00e-02
-6.00e-02
-6.00e-02
-6.50e-02
-7.00e-02
-7.00e-02
-7.50e-02
-7.50e-02
-8.00e-02
-7.50e-02
-7.50e-02
-7.00e-02
-7.00e-02
-6.50e-02
-6.50e-02
-6.50e-02
-6.50e-02
-6.50e-02
-6.50e-02
-6.50e-02
-6.50e-02
-7.00e-02
-7.00e-02
-8.00e-02
-8.50e-02
-9.50e-02
-1.00e-01
-1.05e-01
-1.05e-01
-1.00e-01
-8.50e-02
-5.50e-02
-2.00e-02
3.00e-02
9.00e-02
1.50e-01
2.20e-01
2.90e-01
3.55e-01
4.15e-01
4.60e-01
4.90e-01
4.95e-01
4.85e-01
4.45e-01
3.85e-01
3.05e-01
2.15e-01
1.20e-01
3.00e-02
-5.00e-02
-1.10e-01
-1.50e-01
-1.65e-01
-1.60e-01
-1.45e-01
-1.20e-01
-9.00e-02
-7.00e-02
-5.50e-02
-4.50e-02
-5.00e-02
-5.50e-02
-6.00e-02
-6.50e-02
-6.50e-02
-6.00e-02
-5.50e-02
-4.50e-02
-4.00e-02
-3.50e-02
-4.00e-02
-4.50e-02
-5.50e-02
-6.50e-02
-7.00e-02
-8.00e-02
-8.00e-02
-8.00e-02
-7.50e-02
-6.50e-02
-6.00e-02
-5.00e-02
-4.50e-02
-4.50e-02
-4.00e-02
-4.50e-02
-4.50e-02
-4.50e-02
-4.50e-02
-4.50e-02
-4.50e-02
-4.00e-02
-3.50e-02
-3.50e-02
-3.00e-02
-3.00e-02
-3.00e-02
-3.00e-02
-2.50e-02
-1.50e-02
-5.00e-03
5.00e-03
2.00e-02
3.50e-02
5.00e-02
7.00e-02
8.00e-02
9.00e-02
1.00e-01
1.10e-01
1.15e-01
1.25e-01
1.30e-01
1.35e-01
1.40e-01
1.45e-01
1.45e-01
1.50e-01
1.50e-01
1.55e-01
1.60e-01
1.70e-01
1.75e-01
1.85e-01
1.95e-01
2.05e-01
2.10e-01
2.15e-01
2.20e-01
2.20e-01
2.15e-01
2.15e-01
2.15e-01
2.20e-01
2.25e-01
2.35e-01
2.45e-01
2.60e-01
2.70e-01
2.80e-01
2.90e-01
3.00e-01
3.05e-01
3.10e-01
3.10e-01
3.15e-01
3.15e-01
3.20e-01
3.20e-01
3.25e-01
3.25e-01
3.25e-01
3.25e-01
3.25e-01
3.20e-01
3.20e-01
3.20e-01
3.20e-01
3.20e-01
3.25e-01
3.25e-01
3.25e-01
3.25e-01
3.20e-01
3.15e-01
3.10e-01
3.00e-01
2.90e-01
2.75e-01
2.65e-01
2.55e-01
2.45e-01
2.35e-01
2.30e-01
2.20e-01
2.10e-01
2.00e-01
1.90e-01
1.80e-01
1.70e-01
1.60e-01
1.55e-01
1.50e-01
1.45e-01
1.40e-01
1.35e-01
1.30e-01
1.30e-01
1.25e-01
1.20e-01
1.15e-01
1.15e-01
1.10e-01
1.10e-01
1.10e-01
1.05e-01
1.05e-01
1.05e-01
1.00e-01
9.50e-02
9.00e-02
8.00e-02
7.50e-02
7.00e-02
6.50e-02
6.50e-02
6.50e-02
7.00e-02
7.50e-02
8.00e-02
8.50e-02
8.50e-02
8.50e-02
8.00e-02
7.50e-02
7.00e-02
6.50e-02
6.00e-02
6.00e-02
6.00e-02
6.00e-02
6.50e-02
6.50e-02
6.50e-02
6.50e-02
6.50e-02
6.50e-02
6.50e-02
6.00e-02
6.00e-02
6.00e-02
6.00e-02
6.00e-02
6.00e-02
6.00e-02
6.00e-02
5.50e-02
5.50e-02
5.50e-02
5.50e-02
5.00e-02
5.00e-02
5.00e-02
5.00e-02
5.00e-02
5.00e-02
4.50e-02
4.50e-02
4.50e-02
4.00e-02
4.00e-02
4.00e-02
4.00e-02
4.00e-02
4.00e-02
4.00e-02
4.00e-02
3.50e-02
3.50e-02
3.00e-02
3.00e-02
2.50e-02
2.00e-02
2.00e-02
1.50e-02
1.50e-02
2.00e-02
2.00e-02
2.00e-02
2.50e-02
2.50e-02
2.50e-02
2.50e-02
2.00e-02
1.50e-02
1.00e-02
5.00e-03
0.00e+00
-5.00e-03
-5.00e-03
-1.00e-02
-1.00e-02
-1.00e-02
-5.00e-03
-5.00e-03
-5.00e-03
-5.00e-03
-5.00e-03
-5.00e-03
-1.00e-02
-1.00e-02
-1.00e-02
-1.50e-02
-1.50e-02
-2.00e-02
-2.00e-02
-2.00e-02
-2.00e-02
-2.00e-02
-2.00e-02
-1.50e-02
-1.50e-02
-1.50e-02
-1.50e-02
-1.50e-02
-2.00e-02
-2.00e-02
-2.00e-02
-2.50e-02
-3.00e-02
-3.00e-02
-3.50e-02
-4.00e-02
-4.50e-02
-5.00e-02
-5.00e-02
-5.00e-02
-4.50e-02
-4.00e-02
-3.50e-02
-3.00e-02
-2.50e-02
-2.50e-02
-2.50e-02
-3.00e-02
-4.00e-02
-5.00e-02
-6.00e-02
-6.50e-02
-7.00e-02
-7.50e-02
-7.00e-02
-6.50e-02
-6.00e-02
-5.00e-02
-4.50e-02
-4.50e-02
-4.50e-02
-4.50e-02
-5.00e-02
-5.50e-02
-6.00e-02
-6.50e-02
-7.00e-02
-7.50e-02
-8.00e-02
-8.00e-02
-8.50e-02
-8.50e-02
-8.50e-02
-8.50e-02
-8.50e-02
-8.50e-02
-8.50e-02
-8.00e-02
-7.50e-02
-7.00e-02
-7.00e-02
-6.50e-02
-6.50e-02
-7.00e-02
-7.00e-02
-7.00e-02
-7.00e-02
-7.00e-02
-7.00e-02
-6.50e-02
-6.00e-02
-5.50e-02
-5.00e-02
-4.50e-02
-4.00e-02
-4.00e-02
-4.50e-02
-5.00e-02
-5.50e-02
-6.00e-02
-6.50e-02
-7.00e-02
-7.00e-02
-6.50e-02
-6.00e-02
-5.50e-02
-4.50e-02
-3.00e-02
-2.00e-02
-1.50e-02
-5.00e-03
-5.00e-03
-5.00e-03
-1.00e-02
-1.50e-02
-2.00e-02
-3.00e-02
-3.50e-02
-4.00e-02
-4.50e-02
-4.50e-02
-4.50e-02
-4.50e-02
-5.00e-02
-5.00e-02
-5.50e-02
-6.00e-02
-6.50e-02
-7.50e-02
-8.50e-02
-9.00e-02
-1.00e-01
-1.05e-01
-1.05e-01
-1.10e-01
-1.10e-01
-1.10e-01
-1.10e-01
-1.10e-01
-1.10e-01
-1.05e-01
-1.05e-01
-1.05e-01
-1.00e-01
-1.00e-01
-1.00e-01
-1.05e-01
-1.05e-01
-1.10e-01
-1.15e-01
-1.25e-01
-1.30e-01
-1.30e-01
-1.30e-01
-1.30e-01
-1.30e-01
-1.25e-01
-1.20e-01
-1.15e-01
-1.10e-01
-1.10e-01
-1.10e-01
-1.10e-01
-1.15e-01
-1.20e-01
-1.25e-01
-1.30e-01
-1.30e-01
-1.35e-01
-1.40e-01
-1.40e-01
-1.45e-01
-1.45e-01
-1.45e-01
-1.40e-01
-1.30e-01
-1.15e-01
-8.50e-02
-4.50e-02
5.00e-03
7.00e-02
1.45e-01
2.25e-01
3.05e-01
3.80e-01
4.40e-01
4.75e-01
4.90e-01
4.75e-01
4.30e-01
3.60e-01
2.75e-01
1.75e-01
8.00e-02
-1.50e-02
-9.00e-02
-1.50e-01
-1.85e-01
-2.05e-01
-2.05e-01
-1.95e-01
-1.75e-01
-1.55e-01
-1.40e-01
-1.25e-01
-1.15e-01
-1.10e-01
-1.05e-01
-1.00e-01
-1.00e-01
-1.00e-01
-9.50e-02
-9.50e-02
-9.50e-02
-9.50e-02
-9.50e-02
-1.00e-01
-1.00e-01
-1.05e-01
-1.05e-01
-1.05e-01
-1.05e-01
-1.00e-01
-9.00e-02
-8.50e-02
-7.50e-02
-7.00e-02
-6.50e-02
-6.00e-02
-6.00e-02
-6.50e-02
-6.50e-02
-7.00e-02
-7.50e-02
-8.00e-02
-8.00e-02
-7.50e-02
-7.00e-02
-6.50e-02
-6.00e-02
-5.00e-02
-4.50e-02
-4.00e-02
-4.00e-02
-4.00e-02
-4.50e-02
-5.00e-02
-5.50e-02
-6.00e-02
-6.50e-02
-6.50e-02
-6.50e-02
-6.50e-02
-6.00e-02
-5.50e-02
-5.00e-02
-5.00e-02
-4.50e-02
-4.50e-02
-4.50e-02
-4.50e-02
-4.00e-02
-3.50e-02
-3.50e-02
-2.50e-02
-2.00e-02
-1.50e-02
-1.00e-02
-5.00e-03
-5.00e-03
0.00e+00
0.00e+00
5.00e-03
1.00e-02
1.50e-02
2.00e-02
2.50e-02
3.00e-02
3.50e-02
4.00e-02
4.00e-02
4.50e-02
4.50e-02
5.50e-02
6.00e-02
7.00e-02
8.50e-02
1.00e-01
1.10e-01
1.20e-01
1.30e-01
1.35e-01
1.35e-01
1.35e-01
1.30e-01
1.30e-01
1.30e-01
1.30e-01
1.35e-01
1.40e-01
1.45e-01
1.50e-01
1.50e-01
1.45e-01
1.40e-01
1.35e-01
1.30e-01
1.25e-01
1.25e-01
1.20e-01
1.20e-01
1.20e-01
1.20e-01
1.15e-01
1.05e-01
9.50e-02
8.00e-02
6.50e-02
5.00e-02
3.50e-02
2.50e-02
1.50e-02
5.00e-03
0.00e+00
-5.00e-03
-1.00e-02
-1.50e-02
-2.00e-02
-3.00e-02
-3.50e-02
-4.00e-02
-4.50e-02
-5.50e-02
-6.00e-02
-6.50e-02
-7.50e-02
-8.00e-02
-8.50e-02
-9.00e-02
-9.00e-02
-9.00e-02
-9.00e-02
-9.00e-02
-8.50e-02
-8.50e-02
-8.50e-02
-9.00e-02
-9.00e-02
-9.50e-02
-1.00e-01
-1.05e-01
-1.05e-01
-1.10e-01
-1.05e-01
-1.05e-01
-1.00e-01
-9.00e-02
-8.50e-02
-8.00e-02
-8.00e-02
-8.00e-02
-8.50e-02
-8.50e-02
-9.00e-02
-9.50e-02
-1.00e-01
-1.00e-01
-9.50e-02
-9.00e-02
-8.50e-02
-8.00e-02
-7.00e-02
-6.50e-02
-6.50e-02
-6.50e-02
-7.00e-02
-8.00e-02
-8.50e-02
-9.50e-02
-1.00e-01
-1.05e-01
-1.05e-01
-1.05e-01
-1.00e-01
-9.00e-02
-8.50e-02
-7.50e-02
-7.00e-02
-6.50e-02
-6.50e-02
-6.50e-02
-7.00e-02
-7.00e-02
-7.00e-02
-7.50e-02
-7.50e-02
-7.50e-02
-8.00e-02
-8.00e-02
-8.00e-02
-8.00e-02
-8.00e-02
-8.00e-02
-8.00e-02
-8.00e-02
-7.50e-02
-7.00e-02
-6.50e-02
-6.50e-02
-6.00e-02
-5.50e-02
-5.50e-02
-5.50e-02
-5.50e-02
-5.50e-02
-5.50e-02
-5.50e-02
-5.50e-02
-5.50e-02
-5.00e-02
-5.00e-02
-5.00e-02
-5.50e-02
-5.50e-02
-5.50e-02
-6.00e-02
-6.00e-02
-6.50e-02
-6.50e-02
-7.00e-02
-7.50e-02
-7.50e-02
-8.00e-02
-8.50e-02
-8.50e-02
-9.00e-02
-9.00e-02
-9.00e-02
-9.00e-02
-8.50e-02
-8.50e-02
-8.00e-02
-8.00e-02
-8.00e-02
-8.00e-02
-7.50e-02
-7.50e-02
-7.50e-02
-7.00e-02
-7.00e-02
-6.50e-02
-6.50e-02
-6.50e-02
-6.50e-02
-7.00e-02
-7.00e-02
-7.50e-02
-8.00e-02
-8.00e-02
-8.00e-02
-8.00e-02
-8.00e-02
-8.00e-02
-8.00e-02
-7.50e-02
-7.50e-02
-7.00e-02
-7.00e-02
-7.00e-02
-7.00e-02
-7.00e-02
-7.00e-02
-7.00e-02
-7.50e-02
-7.50e-02
-7.50e-02
-7.50e-02
-7.50e-02
-7.00e-02
-7.00e-02
-7.00e-02
-7.00e-02
-7.00e-02
-7.00e-02
-7.00e-02
-7.50e-02
-7.50e-02
-7.50e-02
-8.00e-02
-7.50e-02
-7.50e-02
-7.50e-02
-7.50e-02
-7.50e-02
-7.50e-02
-7.50e-02
-7.50e-02
-8.00e-02
-8.00e-02
-8.00e-02
-8.00e-02
-8.00e-02
-7.50e-02
-7.50e-02
-7.00e-02
-6.50e-02
-6.50e-02
-6.00e-02
-5.50e-02
-5.00e-02
-5.00e-02
-4.50e-02
-4.50e-02
-4.50e-02
-4.50e-02
-4.00e-02
-4.00e-02
-4.00e-02
-4.00e-02
-3.50e-02
-3.00e-02
-2.50e-02
-2.00e-02
-1.00e-02
-5.00e-03
5.00e-03
1.00e-02
1.50e-02
1.50e-02
2.00e-02
1.50e-02
1.00e-02
5.00e-03
-5.00e-03
-1.50e-02
-2.50e-02
-3.50e-02
-4.00e-02
-4.50e-02
-4.50e-02
-4.50e-02
-4.50e-02
-4.50e-02
-4.50e-02
-5.00e-02
-5.50e-02
-6.00e-02
-6.50e-02
-7.50e-02
-8.00e-02
-8.00e-02
-8.00e-02
-8.00e-02
-7.50e-02
-7.50e-02
-7.00e-02
-7.00e-02
-7.50e-02
-7.50e-02
-8.00e-02
-8.00e-02
-8.50e-02
-8.50e-02
-8.00e-02
-8.00e-02
-7.50e-02
-7.50e-02
-7.50e-02
-7.50e-02
-7.50e-02
-7.50e-02
-8.00e-02
-8.00e-02
-8.00e-02
-8.00e-02
-8.00e-02
-8.00e-02
-8.00e-02
-8.50e-02
-9.00e-02
-9.50e-02
-1.00e-01
-1.05e-01
-1.05e-01
-1.05e-01
-1.05e-01
-1.05e-01
-1.05e-01
-1.00e-01
-9.50e-02
-8.50e-02
-6.00e-02
-2.50e-02
2.50e-02
9.00e-02
1.75e-01
2.65e-01
3.60e-01
4.55e-01
5.30e-01
5.90e-01
6.15e-01
6.10e-01
5.75e-01
5.10e-01
4.15e-01
3.10e-01
1.95e-01
8.50e-02
-1.00e-02
-9.00e-02
-1.45e-01
-1.75e-01
-1.85e-01
-1.75e-01
-1.55e-01
-1.30e-01
-1.05e-01
-8.00e-02
-6.00e-02
-5.00e-02
-4.50e-02
-5.00e-02
-5.00e-02
-5.50e-02
-6.00e-02
-6.00e-02
-6.00e-02
-6.00e-02
-5.50e-02
-5.00e-02
-5.00e-02
-5.00e-02
-5.00e-02
-5.50e-02
-6.00e-02
-6.00e-02
-6.00e-02
-6.00e-02
-6.00e-02
-5.50e-02
-5.00e-02
-4.50e-02
-4.00e-02
-4.00e-02
-4.00e-02
-4.00e-02
-4.00e-02
-4.00e-02
-3.50e-02
-3.50e-02
-3.00e-02
-2.50e-02
-2.00e-02
-1.50e-02
-1.00e-02
-1.00e-02
-5.00e-03
-5.00e-03
-5.00e-03
-1.00e-02
-1.00e-02
-1.00e-02
-1.00e-02
-1.00e-02
-5.00e-03
-5.00e-03
-5.00e-03
0.00e+00
0.00e+00
0.00e+00
0.00e+00
5.00e-03
5.00e-03
5.00e-03
5.00e-03
5.00e-03
1.00e-02
1.50e-02
2.00e-02
3.00e-02
3.50e-02
4.50e-02
5.00e-02
5.50e-02
6.00e-02
6.50e-02
6.50e-02
7.00e-02
7.50e-02
7.50e-02
8.00e-02
8.50e-02
9.00e-02
9.50e-02
1.00e-01
1.05e-01
1.10e-01
1.15e-01
1.20e-01
1.25e-01
1.35e-01
1.40e-01
1.50e-01
1.55e-01
1.60e-01
1.70e-01
1.75e-01
1.80e-01
1.85e-01
1.90e-01
1.95e-01
2.00e-01
2.05e-01
2.05e-01
2.10e-01
2.10e-01
2.10e-01
2.05e-01
2.00e-01
1.95e-01
1.85e-01
1.80e-01
1.80e-01
1.75e-01
1.75e-01
1.75e-01
1.75e-01
1.70e-01
1.60e-01
1.55e-01
1.40e-01
1.25e-01
1.10e-01
9.50e-02
8.00e-02
6.50e-02
5.50e-02
4.50e-02
4.00e-02
3.50e-02
3.00e-02
2.50e-02
2.00e-02
2.00e-02
1.50e-02
1.00e-02
5.00e-03
5.00e-03
0.00e+00
-5.00e-03
-1.50e-02
-2.00e-02
-3.00e-02
-4.00e-02
-4.50e-02
-5.50e-02
-6.00e-02
-6.00e-02
-6.00e-02
-6.00e-02
-5.00e-02
-4.50e-02
-4.00e-02
-3.50e-02
-3.50e-02
-3.50e-02
-4.00e-02
-4.50e-02
-5.00e-02
-5.50e-02
-6.00e-02
-6.00e-02
-5.50e-02
-5.50e-02
-5.00e-02
-4.50e-02
-4.00e-02
-4.00e-02
-4.00e-02
-4.50e-02
-4.50e-02
-5.00e-02
-5.00e-02
-5.50e-02
-5.50e-02
-5.50e-02
-5.50e-02
-5.00e-02
-5.00e-02
-5.00e-02
-5.00e-02
-5.00e-02
-4.50e-02
-4.50e-02
-4.00e-02
-3.50e-02
-3.00e-02
-2.50e-02
-2.50e-02
-2.50e-02
-2.50e-02
-2.50e-02
-3.00e-02
-3.50e-02
-3.50e-02
-3.50e-02
-3.50e-02
-3.50e-02
-3.00e-02
-3.00e-02
-3.00e-02
-3.00e-02
-3.00e-02
-3.00e-02
-3.00e-02
-3.00e-02
-3.50e-02
-3.00e-02
-3.00e-02
-3.00e-02
-3.00e-02
-3.00e-02
-3.00e-02
-3.00e-02
-3.00e-02
-3.00e-02
-2.50e-02
-2.50e-02
-2.00e-02
-2.00e-02
-2.00e-02
-2.50e-02
-2.50e-02
-3.00e-02
-3.00e-02
-3.00e-02
-3.00e-02
-2.50e-02
-1.50e-02
-5.00e-03
5.00e-03
2.00e-02
3.00e-02
4.50e-02
5.50e-02
6.50e-02
7.00e-02
8.00e-02
8.50e-02
8.50e-02
9.00e-02
9.00e-02
9.00e-02
8.50e-02
8.50e-02
8.00e-02
8.00e-02
7.50e-02
7.50e-02
8.00e-02
8.00e-02
8.00e-02
8.00e-02
8.50e-02
8.00e-02
8.00e-02
8.00e-02
7.50e-02
7.50e-02
7.50e-02
7.50e-02
8.00e-02
8.00e-02
8.50e-02
9.00e-02
9.50e-02
1.00e-01
1.05e-01
1.05e-01
1.10e-01
1.05e-01
1.05e-01
1.00e-01
1.00e-01
9.50e-02
9.50e-02
9.50e-02
9.50e-02
9.50e-02
9.50e-02
9.50e-02
9.50e-02
9.50e-02
9.50e-02
9.50e-02
9.50e-02
9.00e-02
9.00e-02
9.00e-02
9.00e-02
9.00e-02
9.00e-02
8.50e-02
8.50e-02
8.00e-02
7.50e-02
7.00e-02
7.00e-02
7.00e-02
7.00e-02
7.00e-02
7.50e-02
8.00e-02
8.50e-02
9.00e-02
9.00e-02
9.00e-02
9.00e-02
9.00e-02
9.00e-02
8.50e-02
9.00e-02
9.00e-02
9.00e-02
9.50e-02
1.00e-01
1.00e-01
1.05e-01
1.05e-01
1.10e-01
1.10e-01
1.15e-01
1.20e-01
1.25e-01
1.30e-01
1.35e-01
1.35e-01
1.40e-01
1.40e-01
1.35e-01
1.35e-01
1.30e-01
1.25e-01
1.25e-01
1.20e-01
1.15e-01
1.10e-01
1.05e-01
9.50e-02
9.00e-02
8.00e-02
7.00e-02
6.00e-02
5.00e-02
4.50e-02
4.00e-02
4.00e-02
3.50e-02
3.50e-02
3.00e-02
2.50e-02
2.50e-02
2.00e-02
1.50e-02
1.00e-02
5.00e-03
5.00e-03
5.00e-03
0.00e+00
0.00e+00
-5.00e-03
-5.00e-03
-5.00e-03
-1.00e-02
-1.00e-02
-1.50e-02
-1.50e-02
-1.50e-02
-1.50e-02
-1.50e-02
-1.50e-02
-1.50e-02
-1.50e-02
-1.00e-02
-1.00e-02
-1.00e-02
-5.00e-03
-5.00e-03
-5.00e-03
-1.00e-02
-1.50e-02
-2.50e-02
-3.50e-02
-4.50e-02
-5.50e-02
-6.50e-02
-7.00e-02
-7.00e-02
-6.50e-02
-5.00e-02
-2.50e-02
1.00e-02
6.00e-02
1.25e-01
2.00e-01
2.90e-01
3.85e-01
4.80e-01
5.65e-01
6.30e-01
6.75e-01
6.90e-01
6.70e-01
6.20e-01
5.35e-01
4.30e-01
3.10e-01
1.90e-01
8.00e-02
-2.00e-02
-9.00e-02
-1.40e-01
-1.60e-01
-1.65e-01
-1.50e-01
-1.25e-01
-1.00e-01
-7.50e-02
-5.50e-02
-4.50e-02
-4.00e-02
-4.00e-02
-4.00e-02
-4.50e-02
-4.50e-02
-4.50e-02
-4.00e-02
-4.00e-02
-3.50e-02
-3.50e-02
-3.00e-02
-3.00e-02
-3.50e-02
-3.50e-02
-3.50e-02
-3.50e-02
-3.00e-02
-3.00e-02
-2.50e-02
-2.50e-02
-2.00e-02
-2.00e-02
-2.00e-02
-2.00e-02
-2.50e-02
-2.50e-02
-3.00e-02
-3.00e-02
-3.00e-02
-3.00e-02
-3.00e-02
-3.00e-02
-3.00e-02
-3.00e-02
-3.00e-02
-3.00e-02
-2.50e-02
-2.50e-02
-2.50e-02
-2.00e-02
-2.00e-02
-1.50e-02
-1.50e-02
-1.50e-02
-1.50e-02
-1.50e-02
-1.00e-02
-1.00e-02
-1.00e-02
-1.00e-02
-1.00e-02
-1.00e-02
-5.00e-03
0.00e+00
0.00e+00
5.00e-03
1.00e-02
1.50e-02
2.00e-02
2.00e-02
2.00e-02
2.00e-02
2.00e-02
2.00e-02
1.50e-02
1.50e-02
2.00e-02
2.50e-02
3.00e-02
4.00e-02
5.00e-02
6.00e-02
7.00e-02
7.50e-02
8.00e-02
8.50e-02
8.50e-02
8.50e-02
9.00e-02
9.00e-02
9.50e-02
1.00e-01
1.10e-01
1.20e-01
1.30e-01
1.40e-01
1.45e-01
1.55e-01
1.55e-01
1.60e-01
1.60e-01
1.65e-01
1.65e-01
1.65e-01
1.65e-01
1.65e-01
1.60e-01
1.60e-01
1.55e-01
1.45e-01
1.40e-01
1.35e-01
1.25e-01
1.25e-01
1.20e-01
1.15e-01
1.10e-01
1.05e-01
9.50e-02
9.00e-02
7.50e-02
6.50e-02
5.50e-02
4.50e-02
3.50e-02
3.00e-02
2.50e-02
2.00e-02
2.00e-02
1.50e-02
1.00e-02
0.00e+00
-1.00e-02
-2.00e-02
-3.50e-02
-4.50e-02
-6.00e-02
-6.50e-02
-7.50e-02
-8.00e-02
-8.00e-02
-8.00e-02
-8.50e-02
-8.50e-02
-8.50e-02
-8.50e-02
-9.00e-02
-9.00e-02
-9.50e-02
-1.00e-01
-1.00e-01
-1.05e-01
-1.10e-01
-1.10e-01
-1.10e-01
-1.05e-01
-1.00e-01
-9.50e-02
-9.50e-02
-9.00e-02
-8.50e-02
-8.00e-02
-7.50e-02
-7.50e-02
-7.50e-02
-7.00e-02
-7.00e-02
-7.00e-02
-7.00e-02
-7.50e-02
-7.50e-02
-8.00e-02
-8.50e-02
-8.50e-02
-9.00e-02
-9.50e-02
-9.50e-02
-9.50e-02
-9.50e-02
-9.00e-02
-8.50e-02
-8.50e-02
-8.00e-02
-8.00e-02
-7.50e-02
-7.50e-02
-7.50e-02
-8.00e-02
-8.00e-02
-8.00e-02
-8.50e-02
-8.50e-02
-9.00e-02
-9.00e-02
-9.00e-02
-9.00e-02
-9.00e-02
-8.50e-02
-8.50e-02
-8.00e-02
-8.00e-02
-7.50e-02
-7.50e-02
-7.50e-02
-7.50e-02
-7.50e-02
-8.00e-02
-8.00e-02
-8.50e-02
-9.00e-02
-9.50e-02
-9.50e-02
-1.00e-01
-1.00e-01
-9.50e-02
-9.50e-02
-9.50e-02
-9.00e-02
-9.00e-02
-9.50e-02
-9.50e-02
-1.00e-01
-1.00e-01
-1.05e-01
-1.10e-01
-1.10e-01
-1.10e-01
-1.10e-01
-1.05e-01
-1.00e-01
-1.00e-01
-9.50e-02
-9.50e-02
-9.00e-02
-9.00e-02
-9.00e-02
-9.00e-02
-9.50e-02
-9.50e-02
-9.50e-02
-9.50e-02
-9.50e-02
-9.00e-02
-9.00e-02
-9.00e-02
-9.00e-02
-9.00e-02
-9.50e-02
-1.00e-01
-1.05e-01
-1.10e-01
-1.15e-01
-1.15e-01
-1.15e-01
-1.10e-01
-1.10e-01
-1.05e-01
-1.00e-01
-1.00e-01
-1.00e-01
-1.05e-01
-1.05e-01
-1.10e-01
-1.15e-01
-1.15e-01
-1.20e-01
-1.20e-01
-1.20e-01
-1.15e-01
-1.15e-01
-1.15e-01
-1.15e-01
-1.15e-01
-1.15e-01
-1.10e-01
-1.10e-01
-1.10e-01
-1.05e-01
-1.00e-01
-9.50e-02
-9.00e-02
-8.50e-02
-8.00e-02
-7.50e-02
-7.00e-02
-6.50e-02
-6.50e-02
-6.00e-02
-6.00e-02
-6.00e-02
-6.00e-02
-6.00e-02
-6.00e-02
-6.00e-02
-5.50e-02
-5.00e-02
-4.50e-02
-4.50e-02
-4.00e-02
-4.00e-02
-4.00e-02
-4.50e-02
-5.00e-02
-6.00e-02
-6.50e-02
-7.00e-02
-8.00e-02
-8.50e-02
-9.00e-02
-9.50e-02
-1.00e-01
-1.05e-01
-1.10e-01
-1.10e-01
-1.10e-01
-1.10e-01
-1.05e-01
-1.00e-01
-9.50e-02
-9.00e-02
-9.00e-02
-8.50e-02
-8.50e-02
-9.00e-02
-9.00e-02
-9.50e-02
-1.00e-01
-1.05e-01
-1.10e-01
-1.10e-01
-1.15e-01
-1.15e-01
-1.15e-01
-1.20e-01
-1.20e-01
-1.25e-01
-1.25e-01
-1.30e-01
-1.30e-01
-1.30e-01
-1.25e-01
-1.25e-01
-1.20e-01
-1.20e-01
-1.20e-01
-1.20e-01
-1.20e-01
-1.20e-01
-1.20e-01
-1.20e-01
-1.25e-01
-1.25e-01
-1.30e-01
-1.35e-01
-1.40e-01
-1.50e-01
-1.55e-01
-1.60e-01
-1.55e-01
-1.45e-01
-1.15e-01
-6.50e-02
0.00e+00
8.00e-02
1.75e-01
2.70e-01
3.65e-01
4.45e-01
5.05e-01
5.40e-01
5.50e-01
5.25e-01
4.75e-01
4.00e-01
3.10e-01
2.05e-01
1.05e-01
5.00e-03
-8.00e-02
-1.50e-01
-2.00e-01
-2.25e-01
-2.35e-01
-2.30e-01
-2.10e-01
-1.85e-01
-1.60e-01
-1.40e-01
-1.20e-01
-1.10e-01
-1.05e-01
-1.00e-01
-1.00e-01
-1.00e-01
-1.00e-01
-1.00e-01
-9.50e-02
-9.50e-02
-9.00e-02
-8.50e-02
-8.00e-02
-7.50e-02
-7.50e-02
-7.50e-02
-7.50e-02
-7.50e-02
-7.50e-02
-7.50e-02
-7.50e-02
-7.50e-02
-7.50e-02
-7.50e-02
-7.00e-02
-7.00e-02
-7.00e-02
-7.50e-02
-7.50e-02
-7.50e-02
-7.50e-02
-7.00e-02
-7.00e-02
-6.50e-02
-6.00e-02
-5.50e-02
-5.00e-02
-4.50e-02
-4.50e-02
-4.50e-02
-4.50e-02
-4.50e-02
-5.00e-02
-5.00e-02
-5.00e-02
-4.50e-02
-4.50e-02
-4.00e-02
-4.00e-02
-3.50e-02
-3.50e-02
-3.50e-02
-3.50e-02
-3.50e-02
-3.00e-02
-2.50e-02
-2.00e-02
-1.50e-02
-5.00e-03
5.00e-03
1.00e-02
1.50e-02
2.00e-02
2.50e-02
2.50e-02
2.50e-02
2.50e-02
2.50e-02
3.00e-02
3.50e-02
4.00e-02
4.50e-02
5.00e-02
5.50e-02
5.50e-02
6.00e-02
6.00e-02
6.50e-02
7.00e-02
8.00e-02
9.00e-02
1.00e-01
1.10e-01
1.20e-01
1.30e-01
1.35e-01
1.40e-01
1.45e-01
1.45e-01
1.50e-01
1.55e-01
1.55e-01
1.60e-01
1.60e-01
1.65e-01
1.65e-01
1.65e-01
1.60e-01
1.60e-01
1.60e-01
1.60e-01
1.60e-01
1.60e-01
1.55e-01
1.50e-01
1.45e-01
1.35e-01
1.25e-01
1.10e-01
9.50e-02
8.00e-02
7.00e-02
6.00e-02
5.50e-02
5.00e-02
4.50e-02
3.50e-02
3.00e-02
2.00e-02
1.00e-02
-5.00e-03
-1.50e-02
-2.50e-02
-3.50e-02
-4.50e-02
-5.00e-02
-5.50e-02
-6.00e-02
-7.00e-02
-7.50e-02
-8.00e-02
-8.50e-02
-8.50e-02
-8.50e-02
-8.50e-02
-8.50e-02
-8.50e-02
-8.00e-02
-8.50e-02
-8.50e-02
-9.50e-02
-1.00e-01
-1.10e-01
-1.15e-01
-1.20e-01
-1.20e-01
-1.20e-01
-1.15e-01
-1.10e-01
-1.00e-01
-9.50e-02
-8.50e-02
-8.00e-02
-7.50e-02
-7.00e-02
-7.00e-02
-7.00e-02
-7.50e-02
-7.50e-02
-8.00e-02
-8.00e-02
-8.00e-02
-8.50e-02
-8.50e-02
-8.00e-02
-8.00e-02
-8.00e-02
-7.50e-02
-7.50e-02
-7.00e-02
-7.00e-02
-7.00e-02
-7.50e-02
-7.50e-02
-8.00e-02
-8.50e-02
-8.50e-02
-9.00e-02
-9.00e-02
-9.00e-02
-9.00e-02
-8.50e-02
-8.50e-02
-8.50e-02
-8.50e-02
-8.50e-02
-8.50e-02
-8.50e-02
-8.50e-02
-8.00e-02
-7.50e-02
-7.00e-02
-6.50e-02
-6.00e-02
-6.00e-02
-5.50e-02
-5.50e-02
-6.00e-02
-6.50e-02
-6.50e-02
-7.00e-02
-7.50e-02
-7.50e-02
-7.50e-02
-7.00e-02
-7.00e-02
-7.00e-02
-7.00e-02
-7.50e-02
-7.50e-02
-8.00e-02
-8.50e-02
-9.00e-02
-9.00e-02
-9.00e-02
-8.50e-02
-8.00e-02
-7.50e-02
-7.00e-02
-7.00e-02
-6.50e-02
-7.00e-02
-7.00e-02
-7.50e-02
-7.50e-02
-7.50e-02
-7.50e-02
-7.50e-02
-7.50e-02
-7.00e-02
-7.00e-02
-7.00e-02
-7.00e-02
-7.00e-02
-7.00e-02
-7.00e-02
-7.00e-02
-7.00e-02
-6.50e-02
-6.50e-02
-6.50e-02
-6.50e-02
-6.50e-02
-7.00e-02
-7.50e-02
-7.50e-02
-8.00e-02
-8.00e-02
-8.00e-02
-8.00e-02
-8.00e-02
-8.00e-02
-7.50e-02
-7.50e-02
-7.00e-02
-6.50e-02
-6.00e-02
-6.00e-02
-5.50e-02
-5.50e-02
-5.50e-02
-5.50e-02
-5.50e-02
-6.00e-02
-6.00e-02
-6.00e-02
-6.00e-02
-5.50e-02
-5.00e-02
-4.50e-02
-3.50e-02
-3.00e-02
-2.50e-02
-2.00e-02
-2.00e-02
-2.50e-02
-2.50e-02
-2.50e-02
-2.50e-02
-2.50e-02
-2.50e-02
-2.50e-02
-3.00e-02
-3.50e-02
-4.50e-02
-5.50e-02
-6.50e-02
-7.50e-02
-8.50e-02
-9.00e-02
-9.50e-02
-9.50e-02
-9.50e-02
-9.00e-02
-9.00e-02
-8.50e-02
-8.50e-02
-8.00e-02
-8.00e-02
-8.00e-02
-8.00e-02
-8.00e-02
-8.00e-02
-8.00e-02
-8.00e-02
-8.50e-02
-8.50e-02
-9.00e-02
-9.00e-02
-9.00e-02
-9.00e-02
-8.00e-02
-7.50e-02
-6.00e-02
-5.00e-02
-4.00e-02
-3.00e-02
-2.00e-02
-1.00e-02
-5.00e-03
0.00e+00
0.00e+00
5.00e-03
5.00e-03
1.00e-02
1.00e-02
1.50e-02
1.50e-02
1.50e-02
2.00e-02
2.00e-02
2.50e-02
2.50e-02
2.50e-02
2.50e-02
2.50e-02
2.50e-02
2.50e-02
3.50e-02
5.00e-02
7.50e-02
1.15e-01
1.65e-01
2.25e-01
3.00e-01
3.75e-01
4.50e-01
5.15e-01
5.70e-01
6.05e-01
6.20e-01
6.10e-01
5.80e-01
5.20e-01
4.45e-01
3.55e-01
2.60e-01
1.70e-01
8.50e-02
2.00e-02
-3.00e-02
-5.50e-02
-6.50e-02
-5.50e-02
-3.00e-02
0.00e+00
3.00e-02
5.50e-02
7.50e-02
8.50e-02
9.00e-02
8.50e-02
8.50e-02
8.00e-02
7.50e-02
7.50e-02
7.50e-02
7.50e-02
7.50e-02
7.50e-02
7.50e-02
7.50e-02
7.50e-02
7.50e-02
7.50e-02
7.50e-02
8.00e-02
8.50e-02
9.00e-02
9.50e-02
9.50e-02
9.50e-02
9.50e-02
9.00e-02
9.00e-02
8.50e-02
8.00e-02
8.00e-02
8.50e-02
8.50e-02
9.00e-02
9.50e-02
1.00e-01
1.00e-01
1.00e-01
1.00e-01
1.00e-01
1.00e-01
1.00e-01
1.00e-01
1.05e-01
1.05e-01
1.10e-01
1.10e-01
1.10e-01
1.10e-01
1.10e-01
1.10e-01
1.10e-01
1.05e-01
1.10e-01
1.10e-01
1.15e-01
1.20e-01
1.25e-01
1.30e-01
1.35e-01
1.35e-01
1.35e-01
1.35e-01
1.35e-01
1.35e-01
1.35e-01
1.35e-01
1.40e-01
1.40e-01
1.45e-01
1.45e-01
1.50e-01
1.50e-01
1.50e-01
1.50e-01
1.55e-01
1.60e-01
1.65e-01
1.70e-01
1.75e-01
1.85e-01
1.90e-01
1.95e-01
2.00e-01
2.05e-01
2.05e-01
2.10e-01
2.15e-01
2.20e-01
2.25e-01
2.35e-01
2.40e-01
2.40e-01
2.45e-01
2.45e-01
2.40e-01
2.35e-01
2.30e-01
2.25e-01
2.20e-01
2.15e-01
2.10e-01
2.05e-01
1.95e-01
1.90e-01
1.80e-01
1.75e-01
1.65e-01
1.60e-01
1.60e-01
1.55e-01
1.55e-01
1.50e-01
1.45e-01
1.40e-01
1.30e-01
1.20e-01
1.05e-01
9.50e-02
8.00e-02
7.00e-02
6.00e-02
5.50e-02
5.00e-02
4.50e-02
4.50e-02
4.50e-02
4.00e-02
4.00e-02
3.50e-02
3.50e-02
3.00e-02
3.00e-02
2.50e-02
2.00e-02
1.50e-02
1.00e-02
0.00e+00
-5.00e-03
-1.50e-02
-2.00e-02
-2.50e-02
-3.00e-02
-3.00e-02
-3.00e-02
-3.00e-02
-2.50e-02
-2.50e-02
-2.00e-02
-2.50e-02
-2.50e-02
-2.50e-02
-3.00e-02
-3.50e-02
-3.50e-02
-3.50e-02
-3.50e-02
-3.00e-02
-2.50e-02
-2.00e-02
-1.50e-02
-1.50e-02
-1.50e-02
-1.50e-02
-2.00e-02
-3.00e-02
-3.50e-02
-4.00e-02
-4.50e-02
-4.50e-02
-4.00e-02
-4.00e-02
-3.00e-02
-2.50e-02
-2.00e-02
-2.00e-02
-1.50e-02
-1.50e-02
-2.00e-02
-2.00e-02
-2.00e-02
-2.00e-02
-2.00e-02
-2.00e-02
-1.50e-02
-1.50e-02
-1.50e-02
-1.50e-02
-2.00e-02
-2.50e-02
-3.00e-02
-3.00e-02
-3.50e-02
-3.50e-02
-3.50e-02
-3.50e-02
-3.00e-02
-3.00e-02
-2.50e-02
-2.50e-02
-2.50e-02
-3.00e-02
-3.00e-02
-3.50e-02
-3.50e-02
-3.50e-02
-3.50e-02
-3.00e-02
-3.00e-02
-3.00e-02
-3.00e-02
-3.00e-02
-3.50e-02
-4.00e-02
-4.50e-02
-5.00e-02
-5.00e-02
-5.00e-02
-5.00e-02
-4.50e-02
-4.50e-02
-4.00e-02
-3.50e-02
-3.50e-02
-4.00e-02
-4.00e-02
-4.50e-02
-5.00e-02
-5.00e-02
-5.00e-02
-4.50e-02
-4.00e-02
-3.50e-02
-3.00e-02
-2.50e-02
-2.50e-02
-3.00e-02
-3.00e-02
-4.00e-02
-4.50e-02
-5.00e-02
-5.50e-02
-6.00e-02
-6.00e-02
-5.50e-02
-5.00e-02
-4.50e-02
-4.00e-02
-3.50e-02
-3.50e-02
-3.00e-02
-3.50e-02
-3.50e-02
-3.50e-02
-4.00e-02
-4.00e-02
-3.50e-02
-3.50e-02
-3.00e-02
-2.00e-02
-1.50e-02
-5.00e-03
0.00e+00
5.00e-03
1.00e-02
1.00e-02
1.00e-02
5.00e-03
0.00e+00
-5.00e-03
-1.00e-02
-1.50e-02
-2.00e-02
-2.00e-02
-2.00e-02
-2.50e-02
-2.50e-02
-2.50e-02
-2.50e-02
-2.50e-02
-3.00e-02
-3.50e-02
-3.50e-02
-4.00e-02
-4.50e-02
-4.50e-02
-5.00e-02
-5.50e-02
-6.00e-02
-6.00e-02
-6.50e-02
-6.50e-02
-7.00e-02
-7.00e-02
-7.00e-02
-7.00e-02
-7.00e-02
-7.00e-02
-7.50e-02
-8.00e-02
-8.50e-02
-8.50e-02
-9.00e-02
-9.00e-02
-9.00e-02
-8.50e-02
-8.50e-02
-8.00e-02
-7.50e-02
-7.50e-02
-7.50e-02
-7.50e-02
-7.50e-02
-7.50e-02
-7.00e-02
-7.00e-02
-6.50e-02
-6.00e-02
-6.00e-02
-5.50e-02
-6.00e-02
-6.50e-02
-7.00e-02
-8.00e-02
-9.00e-02
-1.00e-01
-1.10e-01
-1.15e-01
-1.15e-01
-1.10e-01
-1.00e-01
-8.50e-02
-6.00e-02
-3.00e-02
1.50e-02
6.50e-02
1.30e-01
2.00e-01
2.75e-01
3.45e-01
4.05e-01
4.55e-01
4.80e-01
4.80e-01
4.55e-01
4.05e-01
3.35e-01
2.45e-01
1.50e-01
6.00e-02
-2.50e-02
-9.00e-02
-1.40e-01
-1.70e-01
-1.85e-01
-1.80e-01
-1.70e-01
-1.50e-01
-1.30e-01
-1.15e-01
-1.00e-01
-9.00e-02
-8.00e-02
-8.00e-02
-7.50e-02
-7.00e-02
-6.50e-02
-6.00e-02
-5.50e-02
-4.50e-02
-4.00e-02
-4.00e-02
-3.50e-02
-3.50e-02
-3.50e-02
-4.00e-02
-4.50e-02
-4.50e-02
-5.00e-02
-5.50e-02
-5.50e-02
-6.00e-02
-6.50e-02
-6.50e-02
-7.00e-02
-7.00e-02
-6.50e-02
-6.50e-02
-6.00e-02
-5.00e-02
-4.00e-02
-3.50e-02
-2.50e-02
-2.00e-02
-2.00e-02
-1.50e-02
-1.50e-02
-2.00e-02
-2.00e-02
-2.50e-02
-2.50e-02
-2.50e-02
-2.50e-02
-2.50e-02
-2.50e-02
-2.50e-02
-2.50e-02
-2.50e-02
-2.50e-02
-2.50e-02
-2.00e-02
-2.00e-02
-1.50e-02
-1.00e-02
-5.00e-03
5.00e-03
1.00e-02
1.50e-02
2.00e-02
2.50e-02
3.00e-02
3.00e-02
3.00e-02
3.00e-02
3.00e-02
3.00e-02
3.00e-02
3.50e-02
3.50e-02
3.50e-02
4.00e-02
4.00e-02
5.00e-02
5.50e-02
6.50e-02
7.50e-02
8.50e-02
9.00e-02
1.00e-01
1.05e-01
1.10e-01
1.10e-01
1.15e-01
1.15e-01
1.15e-01
1.15e-01
1.15e-01
1.20e-01
1.25e-01
1.35e-01
1.40e-01
1.45e-01
1.50e-01
1.55e-01
1.60e-01
1.60e-01
1.60e-01
1.55e-01
1.55e-01
1.50e-01
1.40e-01
1.35e-01
1.30e-01
1.25e-01
1.20e-01
1.15e-01
1.15e-01
1.10e-01
1.10e-01
1.05e-01
1.00e-01
9.00e-02
8.00e-02
6.50e-02
5.00e-02
3.50e-02
2.00e-02
5.00e-03
-5.00e-03
-1.50e-02
-2.00e-02
-2.50e-02
-2.50e-02
-3.00e-02
-3.00e-02
-3.50e-02
-4.00e-02
-4.50e-02
-5.00e-02
-5.00e-02
-5.50e-02
-5.50e-02
-5.50e-02
-5.50e-02
-5.50e-02
-5.00e-02
-5.00e-02
-4.50e-02
-4.50e-02
-4.50e-02
-4.50e-02
-4.50e-02
-5.00e-02
-5.00e-02
-5.00e-02
-5.00e-02
-5.00e-02
-5.00e-02
-5.00e-02
-5.00e-02
-5.50e-02
-6.00e-02
-6.00e-02
-6.50e-02
-7.00e-02
-7.00e-02
-7.00e-02
-6.50e-02
-6.50e-02
-6.00e-02
-5.50e-02
-6.00e-02
-6.00e-02
-6.50e-02
-7.00e-02
-8.00e-02
-8.50e-02
-8.50e-02
-8.00e-02
-7.50e-02
-7.00e-02
-6.00e-02
-5.50e-02
-5.00e-02
-5.00e-02
-5.50e-02
-6.00e-02
-6.50e-02
-7.00e-02
-7.50e-02
-7.50e-02
-7.00e-02
-6.50e-02
-6.00e-02
-5.50e-02
-5.00e-02
-5.00e-02
-5.00e-02
-5.00e-02
-5.50e-02
-5.50e-02
-6.00e-02
-6.00e-02
-5.50e-02
-5.50e-02
-5.50e-02
-5.50e-02
-5.00e-02
-5.50e-02
-5.50e-02
-5.50e-02
-5.50e-02
-6.00e-02
-6.00e-02
-6.00e-02
-6.50e-02
-6.50e-02
-7.00e-02
-7.50e-02
-8.00e-02
-8.50e-02
-8.50e-02
-9.00e-02
-9.00e-02
-8.50e-02
-8.00e-02
-7.50e-02
-7.00e-02
-6.50e-02
-6.00e-02
-6.00e-02
-6.00e-02
-6.50e-02
-7.00e-02
-7.50e-02
-8.00e-02
-8.00e-02
-8.50e-02
-8.50e-02
-8.50e-02
-8.00e-02
-8.00e-02
-7.50e-02
-7.50e-02
-7.50e-02
-7.50e-02
-7.50e-02
-7.50e-02
-7.50e-02
-7.50e-02
-7.50e-02
-7.50e-02
-7.00e-02
-7.00e-02
-6.50e-02
-6.50e-02
-6.00e-02
-6.00e-02
-6.00e-02
-5.50e-02
-5.50e-02
-5.50e-02
-5.00e-02
-4.50e-02
-4.50e-02
-4.00e-02
-4.00e-02
-4.00e-02
-4.00e-02
-4.00e-02
-4.50e-02
-4.50e-02
-4.50e-02
-4.50e-02
-4.00e-02
-4.00e-02
-3.50e-02
-3.50e-02
-3.00e-02
-3.00e-02
-3.00e-02
-3.00e-02
-3.00e-02
-3.00e-02
-3.00e-02
-3.50e-02
-3.50e-02
-3.50e-02
-4.00e-02
-4.50e-02
-5.00e-02
-5.50e-02
-6.00e-02
-7.00e-02
-8.00e-02
-9.00e-02
-9.50e-02
-1.00e-01
-1.05e-01
-1.10e-01
-1.10e-01
-1.05e-01
-1.05e-01
-1.00e-01
-1.00e-01
-9.50e-02
-1.00e-01
-1.00e-01
-1.05e-01
-1.10e-01
-1.15e-01
-1.20e-01
-1.20e-01
-1.25e-01
-1.25e-01
-1.20e-01
-1.20e-01
-1.20e-01
-1.15e-01
-1.15e-01
-1.15e-01
-1.15e-01
-1.10e-01
-1.10e-01
-1.10e-01
-1.10e-01
-1.10e-01
-1.10e-01
-1.10e-01
-1.10e-01
-1.10e-01
-1.05e-01
-1.00e-01
-1.00e-01
-9.50e-02
-9.50e-02
-1.00e-01
-1.05e-01
-1.15e-01
-1.30e-01
-1.40e-01
-1.50e-01
-1.55e-01
-1.50e-01
-1.30e-01
-1.00e-01
-5.50e-02
5.00e-03
7.50e-02
1.55e-01
2.40e-01
3.25e-01
4.05e-01
4.70e-01
5.25e-01
5.50e-01
5.50e-01
5.20e-01
4.60e-01
3.70e-01
2.65e-01
1.50e-01
3.50e-02
-6.50e-02
-1.40e-01
-1.95e-01
-2.20e-01
-2.20e-01
-2.05e-01
-1.80e-01
-1.50e-01
-1.25e-01
-1.05e-01
-9.50e-02
-9.00e-02
-9.00e-02
-9.00e-02
-9.00e-02
-8.50e-02
-8.00e-02
-7.50e-02
-7.00e-02
-7.00e-02
-7.00e-02
-7.50e-02
-8.00e-02
-8.00e-02
-8.50e-02
-8.50e-02
-8.50e-02
-8.00e-02
-8.00e-02
-7.50e-02
-8.00e-02
-8.00e-02
-8.50e-02
-9.50e-02
-1.00e-01
-1.00e-01
-1.00e-01
-1.00e-01
-9.00e-02
-8.50e-02
-7.50e-02
-7.00e-02
-6.00e-02
-5.50e-02
-5.50e-02
-5.00e-02
-5.00e-02
-4.50e-02
-4.50e-02
-4.00e-02
-4.00e-02
-4.00e-02
-3.50e-02
-4.00e-02
-4.00e-02
-4.00e-02
-4.00e-02
-4.00e-02
-4.00e-02
-4.00e-02
-3.50e-02
-3.00e-02
-3.00e-02
-2.50e-02
-2.00e-02
-2.00e-02
-2.00e-02
-2.00e-02
-1.50e-02
-1.50e-02
-1.50e-02
-1.00e-02
-1.00e-02
-5.00e-03
0.00e+00
5.00e-03
1.00e-02
1.50e-02
2.00e-02
2.50e-02
3.50e-02
4.50e-02
5.00e-02
6.50e-02
7.50e-02
8.50e-02
9.00e-02
1.00e-01
1.00e-01
1.05e-01
1.05e-01
1.05e-01
1.05e-01
1.05e-01
1.10e-01
1.10e-01
1.20e-01
1.25e-01
1.35e-01
1.40e-01
1.45e-01
1.50e-01
1.55e-01
1.55e-01
1.50e-01
1.50e-01
1.45e-01
1.45e-01
1.45e-01
1.45e-01
1.50e-01
1.55e-01
1.60e-01
1.65e-01
1.70e-01
1.75e-01
1.75e-01
1.75e-01
1.75e-01
1.70e-01
1.65e-01
1.55e-01
1.50e-01
1.45e-01
1.40e-01
1.30e-01
1.25e-01
1.20e-01
1.15e-01
1.15e-01
1.10e-01
1.10e-01
1.05e-01
1.05e-01
1.00e-01
9.50e-02
9.00e-02
8.50e-02
8.00e-02
7.00e-02
6.50e-02
6.50e-02
6.00e-02
6.00e-02
6.00e-02
6.00e-02
6.00e-02
6.00e-02
6.00e-02
5.50e-02
5.50e-02
5.00e-02
5.00e-02
5.00e-02
5.00e-02
5.00e-02
5.00e-02
5.00e-02
4.50e-02
4.50e-02
4.00e-02
3.50e-02
3.50e-02
3.00e-02
3.00e-02
3.00e-02
3.00e-02
3.50e-02
3.50e-02
4.00e-02
4.00e-02
4.50e-02
4.50e-02
4.00e-02
4.00e-02
4.00e-02
3.50e-02
4.00e-02
4.00e-02
4.50e-02
4.50e-02
5.00e-02
5.00e-02
5.50e-02
5.50e-02
5.50e-02
5.00e-02
5.00e-02
5.00e-02
5.50e-02
5.50e-02
6.00e-02
6.00e-02
6.00e-02
6.50e-02
6.50e-02
6.50e-02
6.50e-02
6.50e-02
6.00e-02
6.00e-02
6.00e-02
6.00e-02
5.50e-02
5.50e-02
5.00e-02
4.50e-02
4.50e-02
4.00e-02
4.00e-02
4.00e-02
3.50e-02
3.50e-02
3.50e-02
3.50e-02
3.00e-02
3.00e-02
2.50e-02
2.50e-02
2.50e-02
2.50e-02
2.50e-02
2.50e-02
2.50e-02
2.00e-02
1.50e-02
1.00e-02
5.00e-03
-5.00e-03
-1.00e-02
-1.00e-02
-1.00e-02
-1.00e-02
-1.00e-02
-5.00e-03
0.00e+00
0.00e+00
0.00e+00
0.00e+00
0.00e+00
-5.00e-03
-5.00e-03
-5.00e-03
-1.00e-02
-1.00e-02
-1.50e-02
-1.50e-02
-1.50e-02
-2.00e-02
-2.00e-02
-2.50e-02
-2.50e-02
-3.00e-02
-3.00e-02
-3.00e-02
-3.50e-02
-3.50e-02
-3.50e-02
-3.50e-02
-3.50e-02
-3.50e-02
-3.50e-02
-3.50e-02
-3.00e-02
-2.50e-02
-2.50e-02
-2.00e-02
-1.50e-02
-1.50e-02
-1.00e-02
-1.00e-02
-1.50e-02
-1.50e-02
-2.00e-02
-2.50e-02
-3.00e-02
-3.50e-02
-4.00e-02
-4.50e-02
-4.50e-02
-4.50e-02
-4.00e-02
-3.50e-02
-3.00e-02
-2.50e-02
-2.00e-02
-1.50e-02
-1.00e-02
-5.00e-03
0.00e+00
5.00e-03
5.00e-03
1.00e-02
1.00e-02
1.00e-02
5.00e-03
0.00e+00
-1.00e-02
-2.00e-02
-3.50e-02
-5.00e-02
-6.00e-02
-7.50e-02
-8.00e-02
-9.00e-02
-9.00e-02
-9.50e-02
-9.00e-02
-9.00e-02
-8.50e-02
-8.50e-02
-8.50e-02
-8.50e-02
-8.50e-02
-8.50e-02
-8.50e-02
-8.50e-02
-8.50e-02
-8.50e-02
-8.50e-02
-9.00e-02
-9.00e-02
-9.00e-02
-9.50e-02
-9.50e-02
-1.00e-01
-1.00e-01
-1.00e-01
-1.00e-01
-1.00e-01
-1.00e-01
-9.50e-02
-9.50e-02
-9.50e-02
-9.50e-02
-9.50e-02
-9.50e-02
-9.50e-02
-9.50e-02
-1.00e-01
-1.00e-01
-1.05e-01
-1.05e-01
-1.10e-01
-1.10e-01
-1.15e-01
-1.20e-01
-1.25e-01
-1.30e-01
-1.35e-01
-1.35e-01
-1.30e-01
-1.15e-01
-9.00e-02
-4.50e-02
1.00e-02
8.00e-02
1.65e-01
2.60e-01
3.55e-01
4.45e-01
5.25e-01
5.85e-01
6.20e-01
6.20e-01
5.90e-01
5.30e-01
4.40e-01
3.30e-01
2.15e-01
1.00e-01
-1.00e-02
-9.50e-02
-1.55e-01
-1.90e-01
-2.05e-01
-1.95e-01
-1.75e-01
-1.50e-01
-1.20e-01
-1.00e-01
-8.50e-02
-7.50e-02
-7.00e-02
-6.50e-02
-6.50e-02
-6.50e-02
-6.00e-02
-5.50e-02
-5.00e-02
-5.00e-02
-4.50e-02
-4.50e-02
-5.00e-02
-5.50e-02
-6.00e-02
-6.00e-02
-6.00e-02
-6.00e-02
-6.00e-02
-5.50e-02
-5.00e-02
-4.50e-02
-4.50e-02
-4.50e-02
-4.50e-02
-4.50e-02
-4.50e-02
-5.00e-02
-5.00e-02
-5.50e-02
-5.50e-02
-5.00e-02
-5.00e-02
-5.00e-02
-4.50e-02
-4.00e-02
-4.00e-02
-3.50e-02
-3.00e-02
-3.00e-02
-2.50e-02
-2.50e-02
-2.00e-02
-2.00e-02
-2.50e-02
-2.50e-02
-3.00e-02
-3.00e-02
-3.00e-02
-3.00e-02
-2.50e-02
-2.00e-02
-1.00e-02
0.00e+00
5.00e-03
1.50e-02
2.00e-02
2.00e-02
2.00e-02
2.00e-02
2.00e-02
2.00e-02
2.00e-02
2.50e-02
3.00e-02
3.50e-02
4.00e-02
4.50e-02
5.00e-02
5.50e-02
6.00e-02
6.50e-02
7.50e-02
8.00e-02
9.00e-02
1.00e-01
1.10e-01
1.20e-01
1.25e-01
1.30e-01
1.30e-01
1.30e-01
1.30e-01
1.30e-01
1.30e-01
1.30e-01
1.35e-01
1.40e-01
1.50e-01
1.55e-01
1.60e-01
1.60e-01
1.65e-01
1.60e-01
1.60e-01
1.60e-01
1.55e-01
1.55e-01
1.55e-01
1.60e-01
1.60e-01
1.60e-01
1.65e-01
1.60e-01
1.55e-01
1.50e-01
1.40e-01
1.30e-01
1.15e-01
1.05e-01
9.50e-02
9.00e-02
8.00e-02
7.50e-02
7.50e-02
7.00e-02
6.50e-02
6.00e-02
5.50e-02
4.50e-02
3.50e-02
2.50e-02
2.00e-02
1.00e-02
5.00e-03
0.00e+00
-5.00e-03
-1.00e-02
-1.50e-02
-2.00e-02
-2.50e-02
-3.00e-02
-3.50e-02
-3.50e-02
-3.50e-02
-3.50e-02
-3.50e-02
-3.00e-02
-3.00e-02
-3.00e-02
-3.00e-02
-3.50e-02
-3.50e-02
-4.00e-02
-4.50e-02
-4.50e-02
-5.00e-02
-5.00e-02
-5.00e-02
-5.00e-02
-5.50e-02
-5.50e-02
-5.50e-02
-6.00e-02
-6.00e-02
-6.50e-02
-6.50e-02
-6.50e-02
-6.50e-02
-6.50e-02
-6.50e-02
-7.00e-02
-7.00e-02
-7.00e-02
-7.00e-02
-7.00e-02
-7.00e-02
-7.00e-02
-6.50e-02
-6.00e-02
-5.50e-02
-5.00e-02
-4.50e-02
-4.00e-02
-4.00e-02
-3.50e-02
-3.50e-02
-3.50e-02
-3.50e-02
-3.50e-02
-3.50e-02
-4.00e-02
-4.00e-02
-4.50e-02
-5.00e-02
-5.50e-02
-5.50e-02
-6.00e-02
-6.50e-02
-6.50e-02
-6.50e-02
-6.50e-02
-6.00e-02
-5.50e-02
-5.50e-02
-5.00e-02
-4.50e-02
-4.00e-02
-4.00e-02
-4.00e-02
-4.00e-02
-4.00e-02
-4.50e-02
-5.00e-02
-5.00e-02
-5.50e-02
-5.50e-02
-5.50e-02
-5.50e-02
-5.50e-02
-5.00e-02
-5.00e-02
-5.00e-02
-5.50e-02
-5.50e-02
-6.00e-02
-6.50e-02
-7.00e-02
-7.00e-02
-7.50e-02
-7.50e-02
-7.50e-02
-7.00e-02
-6.50e-02
-6.00e-02
-5.50e-02
-5.50e-02
-5.00e-02
-5.00e-02
-5.00e-02
-5.50e-02
-6.00e-02
-6.00e-02
-6.50e-02
-7.00e-02
-7.50e-02
-7.50e-02
-7.50e-02
-7.50e-02
-7.00e-02
-7.00e-02
-6.50e-02
-6.50e-02
-6.50e-02
-6.50e-02
-6.00e-02
-6.00e-02
-6.00e-02
-6.00e-02
-5.50e-02
-5.50e-02
-5.50e-02
-5.00e-02
-5.00e-02
-5.00e-02
-5.00e-02
-5.00e-02
-5.50e-02
-5.50e-02
-5.50e-02
-5.50e-02
-5.50e-02
-5.50e-02
-5.50e-02
-5.00e-02
-5.00e-02
-5.00e-02
-5.00e-02
-5.00e-02
-5.50e-02
-5.50e-02
-5.50e-02
-5.50e-02
-5.50e-02
-5.50e-02
-5.50e-02
-5.00e-02
-5.00e-02
-4.50e-02
-4.50e-02
-4.00e-02
-4.00e-02
-4.00e-02
-4.00e-02
-4.00e-02
-4.00e-02
-3.50e-02
-3.50e-02
-3.00e-02
-2.50e-02
-2.00e-02
-1.50e-02
-1.00e-02
-5.00e-03
0.00e+00
0.00e+00
0.00e+00
0.00e+00
0.00e+00
0.00e+00
-5.00e-03
-5.00e-03
-1.00e-02
-1.50e-02
-1.50e-02
-2.00e-02
-2.50e-02
-3.00e-02
-3.50e-02
-4.50e-02
-5.00e-02
-5.50e-02
-6.00e-02
-6.00e-02
-6.00e-02
-6.00e-02
-6.00e-02
-6.00e-02
-6.00e-02
-6.00e-02
-6.50e-02
-6.50e-02
-6.50e-02
-7.00e-02
-7.00e-02
-7.00e-02
-7.50e-02
-7.50e-02
-7.50e-02
-7.50e-02
-7.50e-02
-7.50e-02
-7.50e-02
-8.00e-02
-7.50e-02
-7.50e-02
-7.50e-02
-7.00e-02
-7.00e-02
-7.00e-02
-7.00e-02
-7.50e-02
-8.00e-02
-8.50e-02
-9.00e-02
-9.50e-02
-1.00e-01
-1.00e-01
-1.00e-01
-9.50e-02
-9.00e-02
-8.50e-02
-8.50e-02
-9.00e-02
-9.50e-02
-1.05e-01
-1.15e-01
-1.25e-01
-1.20e-01
-1.10e-01
-9.00e-02
-5.00e-02
0.00e+00
6.50e-02
1.40e-01
2.25e-01
3.10e-01
3.95e-01
4.70e-01
5.35e-01
5.80e-01
6.00e-01
5.90e-01
5.50e-01
4.85e-01
3.95e-01
2.90e-01
1.75e-01
6.50e-02
-3.50e-02
-1.10e-01
-1.60e-01
-1.85e-01
-1.90e-01
-1.75e-01
-1.50e-01
-1.20e-01
-9.50e-02
-8.00e-02
-7.00e-02
-6.50e-02
-7.00e-02
-7.00e-02
-7.00e-02
-7.00e-02
-6.50e-02
-5.50e-02
-5.00e-02
-4.00e-02
-4.00e-02
-4.00e-02
-4.50e-02
-5.00e-02
-5.50e-02
-6.00e-02
-6.50e-02
-6.00e-02
-6.00e-02
-5.00e-02
-4.50e-02
-4.00e-02
-3.50e-02
-3.00e-02
-3.00e-02
-3.00e-02
-3.00e-02
-3.00e-02
-3.00e-02
-3.00e-02
-3.00e-02
-3.00e-02
-3.00e-02
-3.00e-02
-2.50e-02
-2.50e-02
-2.50e-02
-2.00e-02
-2.00e-02
-1.50e-02
-1.50e-02
-1.00e-02
-1.00e-02
-1.00e-02
-1.50e-02
-1.50e-02
-1.50e-02
-1.00e-02
-1.00e-02
0.00e+00
5.00e-03
1.50e-02
2.00e-02
2.50e-02
3.00e-02
3.00e-02
3.00e-02
2.50e-02
2.50e-02
2.00e-02
2.50e-02
3.00e-02
3.50e-02
4.50e-02
5.00e-02
6.00e-02
6.50e-02
6.50e-02
7.00e-02
6.50e-02
6.50e-02
6.50e-02
7.00e-02
7.50e-02
8.00e-02
9.00e-02
1.00e-01
1.05e-01
1.15e-01
1.20e-01
1.25e-01
1.30e-01
1.30e-01
1.35e-01
1.35e-01
1.40e-01
1.45e-01
1.50e-01
1.55e-01
1.60e-01
1.65e-01
1.75e-01
1.80e-01
1.85e-01
1.90e-01
1.95e-01
1.95e-01
1.90e-01
1.85e-01
1.80e-01
1.70e-01
1.65e-01
1.55e-01
1.50e-01
1.45e-01
1.40e-01
1.35e-01
1.30e-01
1.20e-01
1.10e-01
9.50e-02
8.00e-02
6.50e-02
5.50e-02
4.50e-02
4.00e-02
3.50e-02
3.50e-02
3.50e-02
3.50e-02
3.00e-02
2.50e-02
2.00e-02
1.00e-02
-5.00e-03
-1.50e-02
-2.50e-02
-3.50e-02
-3.50e-02
-4.00e-02
-4.00e-02
-4.00e-02
-4.00e-02
-4.00e-02
-4.00e-02
-4.50e-02
-5.00e-02
-5.00e-02
-5.50e-02
-6.00e-02
-6.50e-02
-7.00e-02
-7.50e-02
-7.50e-02
-8.00e-02
-8.50e-02
-8.50e-02
-8.50e-02
-8.00e-02
-8.00e-02
-7.50e-02
-7.00e-02
-6.50e-02
-6.00e-02
-6.00e-02
-6.00e-02
-6.00e-02
-6.00e-02
-6.50e-02
-6.50e-02
-6.50e-02
-6.50e-02
-6.50e-02
-6.00e-02
-6.00e-02
-6.00e-02
-6.00e-02
-6.50e-02
-6.50e-02
-6.50e-02
-7.00e-02
-7.00e-02
-6.50e-02
-6.50e-02
-6.50e-02
-6.00e-02
-6.00e-02
-6.00e-02
-6.00e-02
-6.00e-02
-6.00e-02
-6.00e-02
-6.00e-02
-6.00e-02
-6.00e-02
-5.50e-02
-5.50e-02
-5.00e-02
-5.00e-02
-5.00e-02
-4.50e-02
-5.00e-02
-5.00e-02
-5.00e-02
-5.50e-02
-5.50e-02
-5.50e-02
-5.50e-02
-5.50e-02
-5.00e-02
-5.00e-02
-4.50e-02
-4.50e-02
-4.50e-02
-4.50e-02
-5.00e-02
-5.00e-02
-5.50e-02
-6.00e-02
-6.50e-02
-6.50e-02
-6.50e-02
-6.50e-02
-6.00e-02
-5.50e-02
-5.00e-02
-4.50e-02
-4.00e-02
-4.00e-02
-4.50e-02
-5.00e-02
-5.50e-02
-6.00e-02
-7.00e-02
-7.00e-02
-7.50e-02
-7.00e-02
-6.50e-02
-6.00e-02
-4.50e-02
-3.50e-02
-2.00e-02
-1.00e-02
0.00e+00
1.00e-02
2.00e-02
2.50e-02
3.00e-02
3.00e-02
3.50e-02
3.50e-02
3.50e-02
4.00e-02
4.00e-02
4.00e-02
4.50e-02
4.50e-02
4.50e-02
4.00e-02
4.00e-02
4.00e-02
4.00e-02
4.00e-02
4.00e-02
4.00e-02
4.00e-02
4.50e-02
5.00e-02
5.00e-02
5.50e-02
5.50e-02
5.50e-02
5.50e-02
5.00e-02
5.00e-02
4.50e-02
4.00e-02
4.00e-02
3.50e-02
3.50e-02
3.50e-02
4.00e-02
4.50e-02
5.00e-02
5.50e-02
6.50e-02
7.00e-02
7.50e-02
7.50e-02
7.50e-02
7.50e-02
7.50e-02
7.00e-02
7.00e-02
7.00e-02
7.00e-02
7.00e-02
7.50e-02
8.00e-02
8.50e-02
9.00e-02
9.50e-02
9.50e-02
1.00e-01
1.00e-01
1.00e-01
1.00e-01
1.00e-01
1.00e-01
1.00e-01
9.50e-02
9.50e-02
9.00e-02
8.50e-02
8.00e-02
7.00e-02
6.00e-02
5.00e-02
4.00e-02
3.00e-02
2.00e-02
1.50e-02
1.50e-02
1.00e-02
1.00e-02
1.50e-02
1.50e-02
2.00e-02
2.00e-02
2.00e-02
2.00e-02
2.00e-02
1.50e-02
1.50e-02
1.50e-02
1.00e-02
5.00e-03
0.00e+00
-5.00e-03
-1.00e-02
-1.50e-02
-2.00e-02
-2.00e-02
-2.50e-02
-2.50e-02
-3.00e-02
-3.00e-02
-3.00e-02
-2.50e-02
-2.50e-02
-2.50e-02
-2.50e-02
-2.00e-02
-2.00e-02
-2.00e-02
-2.00e-02
-2.00e-02
-2.00e-02
-2.00e-02
-2.00e-02
-2.00e-02
-2.50e-02
-3.00e-02
-4.00e-02
-4.50e-02
-5.50e-02
-6.00e-02
-5.50e-02
-4.50e-02
-2.00e-02
1.50e-02
7.00e-02
1.35e-01
2.15e-01
3.00e-01
3.90e-01
4.80e-01
5.55e-01
6.15e-01
6.45e-01
6.50e-01
6.20e-01
5.65e-01
4.80e-01
3.75e-01
2.60e-01
1.45e-01
4.50e-02
-4.00e-02
-1.05e-01
-1.40e-01
-1.55e-01
-1.50e-01
-1.30e-01
-1.10e-01
-8.50e-02
-6.50e-02
-5.50e-02
-4.50e-02
-4.50e-02
-4.50e-02
-4.50e-02
-4.50e-02
-4.00e-02
-3.50e-02
-3.00e-02
-2.50e-02
-2.50e-02
-2.50e-02
-3.00e-02
-3.50e-02
-4.00e-02
-4.50e-02
-4.50e-02
-4.50e-02
-4.00e-02
-3.50e-02
-3.00e-02
-2.50e-02
-2.50e-02
-2.50e-02
-3.00e-02
-3.50e-02
-4.00e-02
-4.00e-02
-4.00e-02
-4.00e-02
-3.50e-02
-2.50e-02
-2.00e-02
-1.00e-02
-5.00e-03
-5.00e-03
-5.00e-03
-5.00e-03
-5.00e-03
-1.00e-02
-1.00e-02
-1.00e-02
-1.00e-02
-1.00e-02
-5.00e-03
-5.00e-03
0.00e+00
5.00e-03
5.00e-03
5.00e-03
5.00e-03
0.00e+00
0.00e+00
-5.00e-03
-5.00e-03
-5.00e-03
-5.00e-03
-5.00e-03
0.00e+00
5.00e-03
5.00e-03
5.00e-03
1.00e-02
1.00e-02
1.00e-02
1.50e-02
2.00e-02
2.50e-02
3.50e-02
4.50e-02
5.50e-02
6.50e-02
7.50e-02
8.50e-02
9.00e-02
1.00e-01
1.05e-01
1.10e-01
1.15e-01
1.20e-01
1.25e-01
1.30e-01
1.35e-01
1.35e-01
1.40e-01
1.40e-01
1.40e-01
1.40e-01
1.45e-01
1.45e-01
1.50e-01
1.55e-01
1.60e-01
1.65e-01
1.70e-01
1.70e-01
1.75e-01
1.75e-01
1.70e-01
1.70e-01
1.65e-01
1.60e-01
1.55e-01
1.45e-01
1.40e-01
1.35e-01
1.25e-01
1.20e-01
1.10e-01
9.50e-02
8.50e-02
7.50e-02
6.00e-02
5.00e-02
4.00e-02
3.50e-02
2.50e-02
2.00e-02
1.50e-02
1.00e-02
5.00e-03
-5.00e-03
-1.50e-02
-2.00e-02
-3.00e-02
-3.50e-02
-4.00e-02
-4.50e-02
-5.00e-02
-5.00e-02
-5.50e-02
-5.50e-02
-6.00e-02
-7.00e-02
-7.50e-02
-8.50e-02
-9.00e-02
-9.50e-02
-1.00e-01
-1.00e-01
-1.00e-01
-9.50e-02
-9.50e-02
-9.00e-02
-9.00e-02
-9.00e-02
-9.00e-02
-9.00e-02
-9.00e-02
-9.50e-02
-9.50e-02
-9.00e-02
-9.00e-02
-8.50e-02
-8.50e-02
-8.00e-02
-8.00e-02
-8.00e-02
-8.00e-02
-8.50e-02
-8.50e-02
-8.50e-02
-8.00e-02
-8.00e-02
-8.00e-02
-8.00e-02
-8.00e-02
-8.00e-02
-8.00e-02
-8.50e-02
-8.50e-02
-8.50e-02
-8.50e-02
-8.00e-02
-7.50e-02
-7.00e-02
-6.50e-02
-6.00e-02
-5.50e-02
-5.50e-02
-5.50e-02
-5.50e-02
-6.00e-02
-6.50e-02
-6.50e-02
-7.00e-02
-7.00e-02
-7.00e-02
-6.50e-02
-6.50e-02
-6.00e-02
-6.00e-02
-5.50e-02
-5.50e-02
-5.50e-02
-6.00e-02
-6.00e-02
-6.50e-02
-6.50e-02
-7.00e-02
-7.50e-02
-7.50e-02
-7.50e-02
-7.50e-02
-7.50e-02
-7.50e-02
-7.50e-02
-7.50e-02
-7.50e-02
-7.50e-02
-7.50e-02
-7.50e-02
-8.00e-02
-8.00e-02
-8.00e-02
-8.00e-02
-8.00e-02
-8.00e-02
-8.00e-02
-8.00e-02
-8.00e-02
-8.00e-02
-8.00e-02
-8.00e-02
-8.50e-02
-8.50e-02
-8.50e-02
-9.00e-02
-9.00e-02
-9.00e-02
-8.50e-02
-8.50e-02
-8.00e-02
-8.00e-02
-7.50e-02
-7.50e-02
-7.50e-02
-7.50e-02
-8.00e-02
-8.50e-02
-8.50e-02
-9.00e-02
-9.00e-02
-9.50e-02
-9.50e-02
-9.00e-02
-9.00e-02
-9.00e-02
-9.00e-02
-9.50e-02
-9.50e-02
-1.00e-01
-1.00e-01
-1.00e-01
-1.00e-01
-9.50e-02
-9.50e-02
-8.50e-02
-8.00e-02
-8.00e-02
-7.50e-02
-8.00e-02
-8.00e-02
-8.50e-02
-9.00e-02
-9.50e-02
-1.00e-01
-1.00e-01
-1.00e-01
-9.50e-02
-9.50e-02
-9.50e-02
-9.00e-02
-9.00e-02
-9.50e-02
-9.50e-02
-9.50e-02
-9.50e-02
-9.50e-02
-9.00e-02
-8.50e-02
-8.00e-02
-7.50e-02
-6.50e-02
-6.50e-02
-6.00e-02
-6.00e-02
-6.00e-02
-6.50e-02
-6.50e-02
-7.00e-02
-7.00e-02
-7.00e-02
-7.00e-02
-7.00e-02
-7.00e-02
-6.50e-02
-6.00e-02
-5.50e-02
-5.00e-02
-4.50e-02
-3.50e-02
-3.00e-02
-2.50e-02
-2.00e-02
-2.00e-02
-2.00e-02
-2.00e-02
-2.50e-02
-2.50e-02
-2.50e-02
-2.50e-02
-2.00e-02
-1.50e-02
-1.50e-02
-1.00e-02
-1.00e-02
-1.00e-02
-1.50e-02
-2.50e-02
-3.50e-02
-4.50e-02
-5.50e-02
-6.50e-02
-7.00e-02
-7.50e-02
-8.00e-02
-7.50e-02
-7.50e-02
-7.00e-02
-7.00e-02
-7.00e-02
-6.50e-02
-7.00e-02
-7.00e-02
-7.00e-02
-7.00e-02
-7.50e-02
-7.50e-02
-7.50e-02
-7.50e-02
-8.00e-02
-8.00e-02
-8.50e-02
-8.50e-02
-9.00e-02
-9.00e-02
-9.00e-02
-9.00e-02
-9.00e-02
-8.50e-02
-8.00e-02
-8.00e-02
-7.50e-02
-7.50e-02
-8.00e-02
-8.50e-02
-9.00e-02
-9.50e-02
-1.00e-01
-1.05e-01
-1.10e-01
-1.10e-01
-1.10e-01
-1.10e-01
-1.10e-01
-1.10e-01
-1.10e-01
-1.15e-01
-1.20e-01
-1.20e-01
-1.15e-01
-1.00e-01
-7.50e-02
-3.50e-02
2.00e-02
8.50e-02
1.65e-01
2.50e-01
3.35e-01
4.20e-01
5.00e-01
5.60e-01
6.05e-01
6.20e-01
6.10e-01
5.70e-01
5.00e-01
4.10e-01
3.00e-01
1.90e-01
8.00e-02
-2.00e-02
-9.50e-02
-1.45e-01
-1.70e-01
-1.70e-01
-1.55e-01
-1.30e-01
-1.00e-01
-7.50e-02
-5.50e-02
-4.50e-02
-4.00e-02
-4.50e-02
-5.00e-02
-5.50e-02
-5.50e-02
-5.50e-02
-5.50e-02
-5.00e-02
-5.00e-02
-5.00e-02
-5.00e-02
-5.50e-02
-6.00e-02
-6.00e-02
-6.00e-02
-5.50e-02
-4.50e-02
-3.50e-02
-2.50e-02
-2.00e-02
-2.00e-02
-2.00e-02
-2.50e-02
-3.00e-02
-3.50e-02
-4.00e-02
-4.00e-02
-3.50e-02
-3.00e-02
-2.00e-02
-1.00e-02
0.00e+00
5.00e-03
5.00e-03
5.00e-03
0.00e+00
0.00e+00
-5.00e-03
-1.00e-02
-1.00e-02
-1.00e-02
-1.00e-02
-1.00e-02
-5.00e-03
-5.00e-03
-5.00e-03
-5.00e-03
0.00e+00
0.00e+00
5.00e-03
5.00e-03
1.00e-02
1.50e-02
1.50e-02
1.50e-02
2.00e-02
2.00e-02
2.00e-02
2.00e-02
2.00e-02
2.50e-02
3.00e-02
3.50e-02
4.00e-02
4.50e-02
5.00e-02
5.50e-02
6.00e-02
6.00e-02
6.50e-02
6.50e-02
7.00e-02
8.00e-02
8.50e-02
9.50e-02
1.10e-01
1.20e-01
1.35e-01
1.45e-01
1.55e-01
1.60e-01
1.65e-01
1.65e-01
1.65e-01
1.65e-01
1.65e-01
1.70e-01
1.75e-01
1.80e-01
1.85e-01
1.95e-01
2.00e-01
2.05e-01
2.10e-01
2.10e-01
2.10e-01
2.05e-01
2.00e-01
2.00e-01
2.00e-01
1.95e-01
1.95e-01
1.90e-01
1.85e-01
1.80e-01
1.70e-01
1.60e-01
1.45e-01
1.35e-01
1.25e-01
1.15e-01
1.05e-01
1.00e-01
9.50e-02
8.50e-02
8.00e-02
7.00e-02
6.00e-02
5.00e-02
4.00e-02
3.00e-02
2.50e-02
2.00e-02
1.50e-02
1.50e-02
1.00e-02
1.00e-02
5.00e-03
0.00e+00
-1.00e-02
-1.50e-02
-2.00e-02
-2.00e-02
-2.50e-02
-2.50e-02
-2.00e-02
-2.00e-02
-2.00e-02
-2.00e-02
-2.00e-02
-2.50e-02
-2.50e-02
-2.50e-02
-2.50e-02
-2.50e-02
-2.50e-02
-2.50e-02
-2.50e-02
-2.00e-02
-2.00e-02
-2.00e-02
-2.00e-02
-2.00e-02
-2.00e-02
-2.00e-02
-2.00e-02
-2.00e-02
-2.50e-02
-2.50e-02
-3.00e-02
-4.00e-02
-4.50e-02
-4.50e-02
-5.00e-02
-4.50e-02
-4.00e-02
-3.50e-02
-2.50e-02
-1.50e-02
-5.00e-03
0.00e+00
0.00e+00
0.00e+00
-5.00e-03
-1.00e-02
-1.50e-02
-2.00e-02
-2.50e-02
-2.00e-02
-1.50e-02
-1.00e-02
0.00e+00
5.00e-03
1.00e-02
1.50e-02
1.50e-02
1.00e-02
5.00e-03
0.00e+00
-1.00e-02
-2.00e-02
-2.50e-02
-3.00e-02
-3.50e-02
-3.50e-02
-3.50e-02
-3.50e-02
-3.50e-02
-3.00e-02
-2.50e-02
-2.00e-02
-2.00e-02
-1.50e-02
-1.50e-02
-1.00e-02
-1.00e-02
-1.50e-02
-1.50e-02
-2.00e-02
-2.50e-02
-2.50e-02
-3.00e-02
-3.00e-02
-3.50e-02
-3.50e-02
-3.50e-02
-3.50e-02
-3.50e-02
-3.50e-02
-3.50e-02
-3.50e-02
-3.50e-02
-3.50e-02
-4.00e-02
-4.00e-02
-4.00e-02
-4.00e-02
-4.00e-02
-4.00e-02
-4.00e-02
-4.00e-02
-4.00e-02
-4.00e-02
-4.00e-02
-4.00e-02
-4.00e-02
-4.00e-02
-4.50e-02
-4.50e-02
-4.50e-02
-4.50e-02
-4.50e-02
-4.50e-02
-4.00e-02
-4.00e-02
-4.00e-02
-4.00e-02
-4.50e-02
-4.50e-02
-4.00e-02
-4.00e-02
-4.00e-02
-4.00e-02
-4.00e-02
-3.50e-02
-3.50e-02
-3.50e-02
-3.50e-02
-3.50e-02
-3.00e-02
-3.00e-02
-3.00e-02
-3.00e-02
-3.00e-02
-3.00e-02
-3.50e-02
-3.50e-02
-3.50e-02
-3.50e-02
-3.50e-02
-3.50e-02
-3.50e-02
-4.00e-02
-4.00e-02
-4.00e-02
-4.50e-02
-5.00e-02
-5.00e-02
-5.50e-02
-6.00e-02
-6.00e-02
-6.00e-02
-5.50e-02
-5.50e-02
-5.00e-02
-4.50e-02
-4.00e-02
-3.50e-02
-3.00e-02
-3.00e-02
-2.50e-02
-2.00e-02
-2.00e-02
-1.50e-02
-1.50e-02
-1.50e-02
-1.50e-02
-1.50e-02
-1.50e-02
-1.50e-02
-1.50e-02
-1.50e-02
-2.00e-02
-2.00e-02
-2.00e-02
-2.00e-02
-2.00e-02
-1.50e-02
-1.00e-02
-5.00e-03
0.00e+00
5.00e-03
1.00e-02
1.50e-02
1.50e-02
1.50e-02
1.00e-02
1.00e-02
5.00e-03
0.00e+00
0.00e+00
-5.00e-03
-1.00e-02
-1.00e-02
-1.50e-02
-2.00e-02
-2.00e-02
-2.50e-02
-3.00e-02
-3.50e-02
-3.50e-02
-4.00e-02
-4.00e-02
-4.50e-02
-4.50e-02
-5.00e-02
-5.00e-02
-5.50e-02
-5.50e-02
-5.50e-02
-5.50e-02
-5.50e-02
-5.50e-02
-5.50e-02
-5.50e-02
-6.00e-02
-6.00e-02
-6.50e-02
-6.50e-02
-7.00e-02
-7.00e-02
-7.00e-02
-7.00e-02
-7.00e-02
-6.50e-02
-6.50e-02
-6.50e-02
-6.50e-02
-6.50e-02
-6.50e-02
-7.00e-02
-7.00e-02
-7.50e-02
-7.50e-02
-7.50e-02
-7.00e-02
-6.50e-02
-6.50e-02
-6.50e-02
-6.50e-02
-6.50e-02
-7.00e-02
-8.00e-02
-8.50e-02
-9.50e-02
-1.00e-01
-9.50e-02
-8.50e-02
-6.50e-02
-3.00e-02
1.50e-02
7.50e-02
1.45e-01
2.30e-01
3.15e-01
4.00e-01
4.85e-01
5.55e-01
6.10e-01
6.45e-01
6.50e-01
6.25e-01
5.70e-01
4.90e-01
3.90e-01
2.85e-01
1.75e-01
7.00e-02
-1.50e-02
-8.00e-02
-1.25e-01
-1.45e-01
-1.50e-01
-1.35e-01
-1.15e-01
-9.50e-02
-7.50e-02
-5.50e-02
-4.50e-02
-4.00e-02
-4.00e-02
-4.00e-02
-4.00e-02
-4.50e-02
-4.50e-02
-5.00e-02
-5.00e-02
-5.00e-02
-5.00e-02
-5.50e-02
-5.50e-02
-6.00e-02
-6.00e-02
-6.00e-02
-6.00e-02
-6.00e-02
-6.00e-02
-5.50e-02
-5.50e-02
-5.00e-02
-4.50e-02
-4.50e-02
-4.00e-02
-3.50e-02
-3.00e-02
-2.50e-02
-2.50e-02
-2.50e-02
-2.50e-02
-2.50e-02
-3.00e-02
-3.00e-02
-3.50e-02
-3.50e-02
-3.50e-02
-3.50e-02
-3.00e-02
-2.50e-02
-2.00e-02
-1.50e-02
-1.00e-02
-5.00e-03
0.00e+00
5.00e-03
1.00e-02
1.50e-02
1.50e-02
1.50e-02
1.00e-02
1.00e-02
1.00e-02
5.00e-03
5.00e-03
1.00e-02
1.00e-02
1.50e-02
2.00e-02
2.50e-02
3.00e-02
3.00e-02
3.50e-02
3.50e-02
3.50e-02
3.50e-02
4.00e-02
4.00e-02
4.50e-02
5.00e-02
6.00e-02
6.50e-02
7.50e-02
8.00e-02
9.00e-02
9.50e-02
1.00e-01
1.05e-01
1.10e-01
1.20e-01
1.25e-01
1.30e-01
1.40e-01
1.45e-01
1.50e-01
1.60e-01
1.65e-01
1.70e-01
1.70e-01
1.75e-01
1.80e-01
1.85e-01
1.90e-01
1.95e-01
2.00e-01
2.00e-01
2.00e-01
2.00e-01
2.00e-01
2.00e-01
1.95e-01
1.95e-01
1.85e-01
1.80e-01
1.70e-01
1.55e-01
1.45e-01
1.30e-01
1.15e-01
1.05e-01
9.50e-02
8.50e-02
8.00e-02
7.00e-02
6.50e-02
6.00e-02
5.00e-02
4.00e-02
3.50e-02
2.50e-02
2.00e-02
1.50e-02
1.00e-02
5.00e-03
0.00e+00
0.00e+00
-5.00e-03
-1.00e-02
-1.50e-02
-1.50e-02
-2.00e-02
-2.50e-02
-2.50e-02
-3.00e-02
-3.00e-02
-3.00e-02
-3.50e-02
-3.50e-02
-4.00e-02
-4.00e-02
-4.50e-02
-4.50e-02
-5.00e-02
-5.00e-02
-5.50e-02
-5.50e-02
-6.00e-02
-6.50e-02
-6.50e-02
-7.00e-02
-7.50e-02
-7.50e-02
-7.50e-02
-7.50e-02
-7.00e-02
-6.50e-02
-5.50e-02
-5.00e-02
-4.00e-02
-3.50e-02
-3.00e-02
-2.50e-02
-2.50e-02
-2.50e-02
-2.50e-02
-3.00e-02
-3.50e-02
-4.00e-02
-4.50e-02
-5.00e-02
-5.50e-02
-5.50e-02
-5.50e-02
-5.50e-02
-5.00e-02
-5.00e-02
-4.50e-02
-4.50e-02
-4.50e-02
-4.50e-02
-4.50e-02
-4.50e-02
-4.50e-02
-5.00e-02
-5.00e-02
-5.00e-02
-5.00e-02
-4.50e-02
-4.00e-02
-4.00e-02
-3.50e-02
-3.00e-02
-3.00e-02
-3.00e-02
-3.00e-02
-3.00e-02
-3.50e-02
-4.00e-02
-4.00e-02
-4.50e-02
-4.50e-02
-4.50e-02
-4.00e-02
-3.50e-02
-3.00e-02
-2.50e-02
-2.00e-02
-1.50e-02
-1.00e-02
-1.00e-02
-5.00e-03
-5.00e-03
-5.00e-03
-1.00e-02
-1.00e-02
-1.50e-02
-1.50e-02
-2.00e-02
-2.50e-02
-3.00e-02
-3.00e-02
-3.50e-02
-4.00e-02
-4.50e-02
-4.50e-02
-4.50e-02
-4.50e-02
-4.00e-02
-4.00e-02
-3.50e-02
-3.00e-02
-3.00e-02
-2.50e-02
-2.50e-02
-2.50e-02
-2.50e-02
-3.00e-02
-3.00e-02
-3.50e-02
-3.50e-02
-3.50e-02
-3.50e-02
-3.50e-02
-3.50e-02
-3.00e-02
-3.00e-02
-2.50e-02
-2.50e-02
-3.00e-02
-3.00e-02
-3.50e-02
-3.50e-02
-4.00e-02
-4.00e-02
-4.50e-02
-4.50e-02
-4.50e-02
-4.50e-02
-4.50e-02
-4.50e-02
-4.50e-02
-4.50e-02
-4.50e-02
-4.50e-02
-4.50e-02
-4.50e-02
-4.50e-02
-4.00e-02
-4.00e-02
-4.00e-02
-4.00e-02
-4.00e-02
-4.50e-02
-4.50e-02
-5.00e-02
-5.00e-02
-5.50e-02
-6.00e-02
-6.00e-02
-6.00e-02
-6.00e-02
-6.00e-02
-6.00e-02
-5.50e-02
-5.00e-02
-5.00e-02
-5.00e-02
-4.50e-02
-4.50e-02
-4.50e-02
-4.50e-02
-4.50e-02
-4.50e-02
-5.00e-02
-5.00e-02
-5.00e-02
-5.00e-02
-5.00e-02
-5.00e-02
-5.50e-02
-5.50e-02
-6.00e-02
-6.50e-02
-6.50e-02
-7.00e-02
-7.00e-02
-6.50e-02
-6.00e-02
-5.50e-02
-5.00e-02
-4.00e-02
-3.50e-02
-2.50e-02
-2.00e-02
-2.00e-02
-2.00e-02
-2.00e-02
-2.00e-02
-2.50e-02
-3.00e-02
-3.50e-02
-3.50e-02
-4.00e-02
-4.00e-02
-3.50e-02
-3.50e-02
-3.00e-02
-3.00e-02
-2.50e-02
-1.50e-02
-1.00e-02
-5.00e-03
0.00e+00
5.00e-03
1.00e-02
1.00e-02
1.00e-02
1.00e-02
5.00e-03
0.00e+00
-5.00e-03
-1.50e-02
-2.50e-02
-3.50e-02
-4.00e-02
-4.50e-02
-5.50e-02
-5.50e-02
-6.00e-02
-6.50e-02
-6.50e-02
-7.00e-02
-7.00e-02
-7.00e-02
-7.50e-02
-7.50e-02
-7.50e-02
-7.50e-02
-8.00e-02
-8.00e-02
-8.00e-02
-8.00e-02
-8.00e-02
-7.50e-02
-7.50e-02
-7.50e-02
-7.00e-02
-7.00e-02
-7.00e-02
-6.50e-02
-7.00e-02
-7.00e-02
-7.00e-02
-7.50e-02
-7.50e-02
-8.00e-02
-8.00e-02
-8.50e-02
-8.50e-02
-8.50e-02
-8.50e-02
-9.00e-02
-9.00e-02
-9.00e-02
-8.50e-02
-8.50e-02
-8.50e-02
-8.00e-02
-8.50e-02
-8.50e-02
-9.00e-02
-1.00e-01
-1.10e-01
-1.20e-01
-1.25e-01
-1.30e-01
-1.20e-01
-1.05e-01
-7.50e-02
-3.00e-02
2.50e-02
9.50e-02
1.70e-01
2.55e-01
3.40e-01
4.25e-01
5.00e-01
5.60e-01
6.05e-01
6.20e-01
6.10e-01
5.65e-01
4.95e-01
4.00e-01
2.90e-01
1.80e-01
7.00e-02
-2.00e-02
-9.00e-02
-1.35e-01
-1.60e-01
-1.60e-01
-1.45e-01
-1.25e-01
-1.05e-01
-8.50e-02
-7.50e-02
-7.00e-02
-7.00e-02
-7.00e-02
-7.00e-02
-7.00e-02
-7.00e-02
-6.00e-02
-5.50e-02
-5.00e-02
-4.50e-02
-4.00e-02
-4.00e-02
-4.00e-02
-4.50e-02
-5.00e-02
-5.00e-02
-5.50e-02
-5.50e-02
-5.50e-02
-5.00e-02
-4.50e-02
-4.50e-02
-4.00e-02
-3.50e-02
-3.50e-02
-3.50e-02
-3.50e-02
-3.50e-02
-3.50e-02
-3.50e-02
-3.50e-02
-3.50e-02
-3.50e-02
-3.00e-02
-3.00e-02
-2.00e-02
-1.50e-02
-1.00e-02
-5.00e-03
-5.00e-03
0.00e+00
0.00e+00
0.00e+00
0.00e+00
-5.00e-03
-5.00e-03
-5.00e-03
-5.00e-03
0.00e+00
0.00e+00
0.00e+00
0.00e+00
0.00e+00
0.00e+00
0.00e+00
0.00e+00
0.00e+00
5.00e-03
1.00e-02
2.00e-02
3.00e-02
4.00e-02
5.00e-02
6.00e-02
6.50e-02
7.00e-02
7.00e-02
7.00e-02
7.00e-02
6.50e-02
6.50e-02
6.50e-02
6.50e-02
7.00e-02
7.50e-02
8.50e-02
9.50e-02
1.00e-01
1.10e-01
1.15e-01
1.25e-01
1.30e-01
1.35e-01
1.40e-01
1.45e-01
1.50e-01
1.55e-01
1.60e-01
1.65e-01
1.70e-01
1.75e-01
1.80e-01
1.80e-01
1.85e-01
1.85e-01
1.85e-01
1.85e-01
1.90e-01
1.90e-01
1.90e-01
1.90e-01
1.90e-01
1.85e-01
1.80e-01
1.75e-01
1.70e-01
1.60e-01
1.55e-01
1.45e-01
1.35e-01
1.30e-01
1.15e-01
1.05e-01
9.50e-02
8.00e-02
6.50e-02
5.50e-02
4.50e-02
3.50e-02
2.50e-02
2.00e-02
1.50e-02
1.50e-02
1.00e-02
1.00e-02
5.00e-03
0.00e+00
-5.00e-03
-1.00e-02
-1.50e-02
-2.00e-02
-2.50e-02
-3.00e-02
-3.00e-02
-3.50e-02
-3.50e-02
-3.50e-02
-3.50e-02
-4.00e-02
-4.00e-02
-4.50e-02
-4.50e-02
-4.50e-02
-4.50e-02
-4.50e-02
-4.50e-02
-4.50e-02
-4.50e-02
-5.00e-02
-5.00e-02
-5.50e-02
-5.50e-02
-6.00e-02
-6.50e-02
-6.50e-02
-6.50e-02
-6.00e-02
-5.50e-02
-5.00e-02
-4.50e-02
-4.00e-02
-3.50e-02
-3.00e-02
-3.00e-02
-2.50e-02
-2.50e-02
-2.50e-02
-2.50e-02
-3.00e-02
-3.50e-02
-4.00e-02
-4.50e-02
-5.00e-02
-5.00e-02
-5.50e-02
-5.50e-02
-5.50e-02
-5.50e-02
-5.50e-02
-5.00e-02
-5.00e-02
-5.00e-02
-4.50e-02
-4.50e-02
-4.50e-02
-4.00e-02
-4.00e-02
-4.00e-02
-3.50e-02
-3.50e-02
-3.50e-02
-3.50e-02
-3.50e-02
-3.50e-02
-3.50e-02
-3.50e-02
-3.50e-02
-3.00e-02
-3.00e-02
-2.50e-02
-2.00e-02
-2.00e-02
-1.50e-02
-1.50e-02
-2.00e-02
-2.00e-02
-2.50e-02
-2.50e-02
-3.00e-02
-3.50e-02
-4.00e-02
-4.00e-02
-4.00e-02
-4.50e-02
-4.50e-02
-4.50e-02
-4.50e-02
-4.50e-02
-4.50e-02
-4.50e-02
-4.50e-02
-4.50e-02
-4.50e-02
-4.50e-02
-4.50e-02
-4.00e-02
-4.00e-02
-3.50e-02
-3.50e-02
-3.00e-02
-3.00e-02
-3.00e-02
-3.50e-02
-4.00e-02
-4.50e-02
-5.00e-02
-5.50e-02
-5.50e-02
-5.50e-02
-5.50e-02
-5.00e-02
-4.50e-02
-4.00e-02
-3.50e-02
-3.00e-02
-3.00e-02
-3.50e-02
-4.00e-02
-4.50e-02
-5.00e-02
-5.00e-02
-5.50e-02
-5.50e-02
-5.00e-02
-5.00e-02
-4.50e-02
-4.00e-02
-4.00e-02
-4.00e-02
-4.50e-02
-4.50e-02
-5.00e-02
-5.50e-02
-5.50e-02
-5.50e-02
-5.50e-02
-5.00e-02
-4.50e-02
-4.50e-02
-4.00e-02
-4.00e-02
-4.00e-02
-4.50e-02
-5.00e-02
-5.50e-02
-6.00e-02
-6.00e-02
-6.00e-02
-5.50e-02
-5.00e-02
-4.50e-02
-4.00e-02
-4.00e-02
-3.50e-02
-3.50e-02
-4.00e-02
-4.00e-02
-4.50e-02
-5.00e-02
-5.00e-02
-5.50e-02
-5.50e-02
-5.50e-02
-5.50e-02
-5.50e-02
-5.00e-02
-5.00e-02
-5.00e-02
-5.00e-02
-4.50e-02
-5.00e-02
-5.00e-02
-5.00e-02
-5.00e-02
-5.00e-02
-4.50e-02
-4.00e-02
-3.50e-02
-3.00e-02
-2.00e-02
-1.50e-02
-1.00e-02
-1.00e-02
-1.00e-02
-1.00e-02
-1.50e-02
-2.50e-02
-3.00e-02
-3.00e-02
-3.00e-02
-2.50e-02
-2.00e-02
-5.00e-03
5.00e-03
2.00e-02
3.00e-02
3.50e-02
4.00e-02
3.50e-02
3.00e-02
2.00e-02
1.00e-02
5.00e-03
-5.00e-03
-1.00e-02
-1.00e-02
-1.00e-02
-1.00e-02
-1.00e-02
-1.00e-02
-1.00e-02
-1.00e-02
-1.50e-02
-2.00e-02
-2.50e-02
-3.50e-02
-4.50e-02
-5.00e-02
-5.50e-02
-6.50e-02
-6.50e-02
-7.00e-02
-7.00e-02
-7.00e-02
-6.50e-02
-6.50e-02
-6.50e-02
-6.50e-02
-6.50e-02
-6.50e-02
-6.50e-02
-6.00e-02
-6.00e-02
-5.50e-02
-5.00e-02
-4.50e-02
-4.50e-02
-4.50e-02
-4.50e-02
-5.00e-02
-5.50e-02
-6.00e-02
-6.50e-02
-6.50e-02
-7.00e-02
-7.00e-02
-7.50e-02
-7.50e-02
-7.50e-02
-8.00e-02
-8.00e-02
-8.00e-02
-8.00e-02
-7.50e-02
-7.00e-02
-6.00e-02
-5.50e-02
-5.50e-02
-5.50e-02
-6.00e-02
-7.00e-02
-8.50e-02
-9.50e-02
-1.00e-01
-9.50e-02
-8.00e-02
-5.00e-02
-5.00e-03
5.50e-02
1.20e-01
2.00e-01
2.80e-01
3.55e-01
4.30e-01
4.95e-01
5.45e-01
5.70e-01
5.75e-01
5.50e-01
5.00e-01
4.25e-01
3.30e-01
2.25e-01
1.15e-01
1.50e-02
-7.00e-02
-1.30e-01
-1.65e-01
-1.75e-01
-1.65e-01
-1.45e-01
-1.15e-01
-9.00e-02
-6.50e-02
-5.00e-02
-4.50e-02
-4.00e-02
-4.00e-02
-3.50e-02
-3.50e-02
-3.00e-02
-2.50e-02
-2.50e-02
-2.00e-02
-1.50e-02
-1.50e-02
-1.50e-02
-2.00e-02
-2.00e-02
-1.50e-02
-1.50e-02
-1.00e-02
-5.00e-03
-5.00e-03
0.00e+00
0.00e+00
-5.00e-03
-5.00e-03
-1.00e-02
-1.50e-02
-1.50e-02
-1.00e-02
-5.00e-03
-5.00e-03
0.00e+00
5.00e-03
5.00e-03
5.00e-03
5.00e-03
5.00e-03
0.00e+00
0.00e+00
0.00e+00
0.00e+00
0.00e+00
0.00e+00
5.00e-03
5.00e-03
1.00e-02
1.00e-02
1.50e-02
2.00e-02
2.50e-02
3.00e-02
3.50e-02
4.00e-02
4.50e-02
4.50e-02
4.50e-02
4.00e-02
4.00e-02
3.50e-02
4.00e-02
4.00e-02
4.50e-02
5.00e-02
5.50e-02
6.00e-02
6.50e-02
6.50e-02
7.00e-02
7.00e-02
7.50e-02
7.50e-02
8.00e-02
8.50e-02
9.50e-02
1.00e-01
1.05e-01
1.10e-01
1.15e-01
1.20e-01
1.25e-01
1.30e-01
1.30e-01
1.35e-01
1.45e-01
1.50e-01
1.60e-01
1.70e-01
1.80e-01
1.85e-01
1.95e-01
2.00e-01
2.05e-01
2.05e-01
2.10e-01
2.10e-01
2.10e-01
2.10e-01
2.05e-01
2.05e-01
2.00e-01
1.95e-01
1.95e-01
1.90e-01
1.85e-01
1.85e-01
1.85e-01
1.80e-01
1.80e-01
1.75e-01
1.70e-01
1.65e-01
1.55e-01
1.45e-01
1.35e-01
1.25e-01
1.15e-01
1.05e-01
9.50e-02
8.50e-02
7.50e-02
6.50e-02
5.50e-02
4.50e-02
3.50e-02
2.00e-02
1.00e-02
0.00e+00
-1.00e-02
-1.50e-02
-1.50e-02
-1.50e-02
-1.50e-02
-1.50e-02
-1.50e-02
-1.50e-02
-1.50e-02
-2.00e-02
-2.00e-02
-2.50e-02
-2.50e-02
-2.50e-02
-2.50e-02
-2.50e-02
-3.00e-02
-3.00e-02
-3.00e-02
-3.50e-02
-3.50e-02
-4.00e-02
-4.00e-02
-4.00e-02
-4.00e-02
-4.00e-02
-3.50e-02
-3.00e-02
-2.50e-02
-2.50e-02
-2.50e-02
-2.50e-02
-3.00e-02
-3.00e-02
-3.50e-02
-3.50e-02
-3.50e-02
-4.00e-02
-3.50e-02
-3.50e-02
-3.50e-02
-3.50e-02
-3.50e-02
-3.50e-02
-3.50e-02
-3.00e-02
-3.00e-02
-3.00e-02
-2.50e-02
-2.50e-02
-2.00e-02
-2.00e-02
-2.00e-02
-2.00e-02
-2.00e-02
-2.00e-02
-2.00e-02
-2.00e-02
-2.00e-02
-1.50e-02
-1.50e-02
-1.00e-02
-1.00e-02
-1.00e-02
-1.00e-02
-1.50e-02
-2.00e-02
-2.50e-02
-3.00e-02
-3.50e-02
-4.00e-02
-3.50e-02
-3.50e-02
-3.00e-02
-3.00e-02
-2.50e-02
-2.50e-02
-2.50e-02
-2.50e-02
-2.50e-02
-2.50e-02
-2.50e-02
-2.50e-02
-2.50e-02
-2.50e-02
-2.50e-02
-2.50e-02
-3.00e-02
-3.00e-02
-3.50e-02
-4.00e-02
-4.00e-02
-4.50e-02
-4.50e-02
-4.00e-02
-4.00e-02
-4.00e-02
-3.50e-02
-3.50e-02
-3.50e-02
-3.50e-02
-4.00e-02
-4.50e-02
-4.50e-02
-5.00e-02
-5.50e-02
-5.50e-02
-5.50e-02
-5.50e-02
-5.50e-02
-5.50e-02
-5.50e-02
-5.50e-02
-5.50e-02
-5.00e-02
-5.00e-02
-5.00e-02
-4.50e-02
-4.00e-02
-3.50e-02
-3.50e-02
-3.00e-02
-3.00e-02
-3.00e-02
-3.00e-02
-3.50e-02
-4.00e-02
-4.50e-02
-5.00e-02
-5.00e-02
-5.50e-02
-6.00e-02
-6.50e-02
-6.50e-02
-6.50e-02
-6.50e-02
-6.00e-02
-6.00e-02
-5.50e-02
-5.00e-02
-5.00e-02
-4.50e-02
-4.50e-02
-5.00e-02
-5.00e-02
-5.00e-02
-5.50e-02
-5.50e-02
-5.50e-02
-5.50e-02
-5.00e-02
-5.00e-02
-4.50e-02
-4.50e-02
-4.50e-02
-4.50e-02
-5.00e-02
-5.50e-02
-6.00e-02
-6.00e-02
-6.50e-02
-6.50e-02
-6.50e-02
-6.00e-02
-6.00e-02
-5.50e-02
-5.00e-02
-5.00e-02
-4.50e-02
-4.50e-02
-4.50e-02
-5.00e-02
-5.00e-02
-5.00e-02
-5.00e-02
-5.00e-02
-5.00e-02
-4.50e-02
-4.50e-02
-4.00e-02
-4.00e-02
-4.00e-02
-4.00e-02
-4.00e-02
-4.00e-02
-3.50e-02
-3.00e-02
-2.50e-02
-2.50e-02
-2.00e-02
-1.50e-02
-1.00e-02
-1.00e-02
-1.00e-02
-1.50e-02
-1.50e-02
-2.00e-02
-2.00e-02
-2.00e-02
-2.00e-02
-1.50e-02
-1.00e-02
-1.00e-02
-5.00e-03
0.00e+00
0.00e+00
0.00e+00
0.00e+00
0.00e+00
0.00e+00
-5.00e-03
-5.00e-03
0.00e+00
0.00e+00
0.00e+00
0.00e+00
5.00e-03
0.00e+00
0.00e+00
-5.00e-03
-5.00e-03
-1.00e-02
-2.00e-02
-2.50e-02
-3.00e-02
-3.50e-02
-3.50e-02
-4.00e-02
-4.00e-02
-4.50e-02
-4.50e-02
-4.50e-02
-4.50e-02
-4.50e-02
-4.50e-02
-4.50e-02
-5.00e-02
-5.00e-02
-5.50e-02
-5.50e-02
-5.50e-02
-5.50e-02
-5.00e-02
-5.00e-02
-4.50e-02
-4.50e-02
-4.50e-02
-4.50e-02
-5.00e-02
-5.00e-02
-5.50e-02
-5.50e-02
-5.50e-02
-5.50e-02
-5.50e-02
-5.50e-02
-5.00e-02
-5.50e-02
-5.50e-02
-6.00e-02
-6.00e-02
-6.50e-02
-6.50e-02
-6.50e-02
-6.50e-02
-6.50e-02
-6.50e-02
-6.50e-02
-7.00e-02
-8.00e-02
-8.50e-02
-8.50e-02
-7.50e-02
-5.50e-02
-2.50e-02
2.50e-02
9.00e-02
1.65e-01
2.50e-01
3.35e-01
4.20e-01
4.95e-01
5.55e-01
5.95e-01
6.10e-01
6.00e-01
5.60e-01
4.95e-01
4.05e-01
3.05e-01
1.95e-01
8.50e-02
-1.00e-02
-8.50e-02
-1.40e-01
-1.70e-01
-1.75e-01
-1.60e-01
-1.35e-01
-1.05e-01
-7.50e-02
-5.50e-02
-4.00e-02
-3.50e-02
-4.00e-02
-4.50e-02
-5.00e-02
-5.50e-02
-6.00e-02
-6.00e-02
-6.50e-02
-6.50e-02
-6.50e-02
-6.50e-02
-6.50e-02
-6.00e-02
-6.00e-02
-5.00e-02
-4.50e-02
-3.50e-02
-3.00e-02
-2.50e-02
-2.00e-02
-2.00e-02
-2.50e-02
-2.50e-02
-3.00e-02
-3.00e-02
-3.00e-02
-3.00e-02
-3.00e-02
-2.50e-02
-2.50e-02
-2.50e-02
-2.50e-02
-2.50e-02
-2.50e-02
-2.50e-02
-2.50e-02
-2.50e-02
-2.50e-02
-2.00e-02
-2.00e-02
-2.00e-02
-1.50e-02
-1.50e-02
-1.50e-02
-1.50e-02
-1.50e-02
-1.00e-02
-1.00e-02
-5.00e-03
0.00e+00
0.00e+00
5.00e-03
5.00e-03
5.00e-03
5.00e-03
1.00e-02
1.00e-02
1.00e-02
1.50e-02
2.00e-02
2.50e-02
3.00e-02
3.50e-02
4.50e-02
5.00e-02
5.50e-02
6.00e-02
6.50e-02
6.50e-02
7.00e-02
7.50e-02
8.00e-02
9.00e-02
9.50e-02
1.00e-01
1.10e-01
1.15e-01
1.20e-01
1.25e-01
1.30e-01
1.35e-01
1.40e-01
1.45e-01
1.50e-01
1.55e-01
1.60e-01
1.65e-01
1.65e-01
1.70e-01
1.75e-01
1.75e-01
1.80e-01
1.80e-01
1.85e-01
1.85e-01
1.90e-01
1.90e-01
1.95e-01
2.00e-01
2.00e-01
2.05e-01
2.05e-01
2.05e-01
2.00e-01
1.90e-01
1.85e-01
1.70e-01
1.60e-01
1.50e-01
1.35e-01
1.25e-01
1.15e-01
1.05e-01
1.00e-01
9.00e-02
8.00e-02
7.00e-02
6.00e-02
5.50e-02
4.50e-02
4.00e-02
3.50e-02
3.50e-02
3.00e-02
2.50e-02
2.00e-02
1.50e-02
1.00e-02
5.00e-03
0.00e+00
-5.00e-03
-1.00e-02
-1.00e-02
-1.00e-02
-1.00e-02
-1.00e-02
-1.00e-02
-1.50e-02
-1.50e-02
-2.00e-02
-2.50e-02
-2.50e-02
-3.00e-02
-3.00e-02
-3.00e-02
-3.00e-02
-3.00e-02
-3.00e-02
-3.00e-02
-3.00e-02
-3.00e-02
-3.00e-02
-3.50e-02
-3.50e-02
-3.50e-02
-3.50e-02
-3.50e-02
